
# version 30001

data_220728_TS_45

loop_ 
_rlnMicrographMovieName #1 
_rlnTomoTiltMovieFrameCount #2 
_rlnTomoTiltMovieIndex #3 
_rlnTomoNominalStageTiltAngle #4 
_rlnTomoNominalTiltAxisAngle #5 
_rlnTomoNominalDefocus #6 
_rlnMicrographPreExposure #7 
_rlnCtfPowerSpectrum #8 
_rlnMicrographName #9 
_rlnMicrographMetadata #10 
_rlnAccumMotionTotal #11 
_rlnAccumMotionEarly #12 
_rlnAccumMotionLate #13 
_rlnCtfImage #14 
_rlnDefocusU #15 
_rlnDefocusV #16 
_rlnCtfAstigmatism #17 
_rlnDefocusAngle #18 
_rlnCtfFigureOfMerit #19 
_rlnCtfMaxResolution #20 
_rlnTomoXTilt #21 
_rlnTomoYTilt #22 
_rlnTomoZRot #23 
_rlnTomoXShiftAngst #24 
_rlnTomoYShiftAngst #25 
_rlnTomoProjX #26 
_rlnTomoProjY #27 
_rlnTomoProjZ #28 
_rlnTomoProjW #29 
frames/TS_45_000_-0.0.mrc           10            1     -0.00150    85.000000     -3.00000     0.000000 MotionCorr/job002/frames/TS_45_000_-0_0_PS.mrc MotionCorr/job002/frames/TS_45_000_-0_0.mrc MotionCorr/job002/frames/TS_45_000_-0_0.star     3.238684     1.448263     1.790421 CtfFind/job003/frames/TS_45_000_-0_0_PS.ctf:mrc 30372.701172 29958.681641   414.019531     4.775604     0.033330     6.575207     0.000000     -7.51000    85.225100     -6.58595    10.435384 [0.0825272670777,-0.996529400349,-0.0108795748153,3694.44514876] [0.987981228106,0.0832413062453,-0.130245627511,-20.3467133621] [0.130699232221,0,0.991422057152,-1748.53155017]  [0,0,0,1] 
frames/TS_45_001_3.0.mrc           10            2     2.999630    85.000000     -3.00000     3.000000 MotionCorr/job002/frames/TS_45_001_3_0_PS.mrc MotionCorr/job002/frames/TS_45_001_3_0.mrc MotionCorr/job002/frames/TS_45_001_3_0.star     3.230459     0.000000     3.230459 CtfFind/job003/frames/TS_45_001_3_0_PS.ctf:mrc 30434.496094 30036.484375   398.011719    57.954823     0.043003     7.166976     0.000000     -4.51000    85.228814     -4.32951    -45.96374 [0.0829191314969,-0.996534824371,-0.00654043955215,3688.83499915] [0.993449152256,0.0831766799092,-0.0783606148686,-150.757953879] [0.0786330923438,0,0.996903598309,-1652.62158215]  [0,0,0,1] 
frames/TS_45_002_-3.0.mrc           10            3     -3.00013    85.000000     -3.00000     6.000000 MotionCorr/job002/frames/TS_45_002_-3_0_PS.mrc MotionCorr/job002/frames/TS_45_002_-3_0.mrc MotionCorr/job002/frames/TS_45_002_-3_0.star     3.317983     0.000000     3.317983 CtfFind/job003/frames/TS_45_002_-3_0_PS.ctf:mrc 30137.939453 29921.019531   216.919922    44.151817     0.042655     6.399085     0.000000    -10.51000    85.221334     5.076504    61.535917 [0.0819091361332,-0.996523976326,-0.0151957491806,3710.78367749] [0.97980537393,0.0833067670465,-0.181773089192,111.017512576] [0.182407140732,0,0.983223080635,-1839.64890242]  [0,0,0,1] 
frames/TS_45_003_-6.0.mrc           10            4     -6.00027    85.000000     -3.00000     9.000000 MotionCorr/job002/frames/TS_45_003_-6_0_PS.mrc MotionCorr/job002/frames/TS_45_003_-6_0.mrc MotionCorr/job002/frames/TS_45_003_-6_0.star     3.179113     0.000000     3.179113 CtfFind/job003/frames/TS_45_003_-6_0_PS.ctf:mrc 30432.402344 29808.937500   623.464844    11.054834     0.038441     5.779819     0.000000    -13.51000    85.217499     4.019110    91.384782 [0.0810665071072,-0.996518373489,-0.019477311752,3718.09681891] [0.9689438528,0.0833735242486,-0.232801710158,231.260242252] [0.233615070581,0,0.972329139709,-1925.72385073]  [0,0,0,1] 
frames/TS_45_004_6.0.mrc           10            5     5.997770    85.000000     -3.00000    12.000000 MotionCorr/job002/frames/TS_45_004_6_0_PS.mrc MotionCorr/job002/frames/TS_45_004_6_0.mrc MotionCorr/job002/frames/TS_45_004_6_0.star     3.574172     0.000000     3.574172 CtfFind/job003/frames/TS_45_004_6_0_PS.ctf:mrc 30235.619141 30028.863281   206.755859     0.268809     0.042428     5.688076     0.000000     -1.51000    85.232499    -10.83123    -70.53333 [0.0830837881984,-0.996540129185,-0.00219013635479,3677.17475539] [0.996194073987,0.0831126496196,-0.0262602476991,-252.46999048] [0.0263514202088,0,0.99965274334,-1552.18195543]  [0,0,0,1] 
frames/TS_45_005_9.0.mrc           10            6     8.996400    85.000000     -3.00000    15.000000 MotionCorr/job002/frames/TS_45_005_9_0_PS.mrc MotionCorr/job002/frames/TS_45_005_9_0.mrc MotionCorr/job002/frames/TS_45_005_9_0.star     2.915381     0.000000     2.915381 CtfFind/job003/frames/TS_45_005_9_0_PS.ctf:mrc 30420.693359 29636.166016   784.527344    -85.74615     0.030263     7.096016     0.000000     1.490000    85.236162     -7.16134    -67.49886 [0.0830208950134,-0.996545493603,0.0021594788748,3673.50528109] [0.99620852455,0.0830489769578,0.025912648416,-328.383128232] [-0.0260024741292,0,0.99966186285,-1447.48784602]  [0,0,0,1] 
frames/TS_45_006_-9.0.mrc           10            7     -8.99940    85.000000     -3.00000    18.000000 MotionCorr/job002/frames/TS_45_006_-9_0_PS.mrc MotionCorr/job002/frames/TS_45_006_-9_0.mrc MotionCorr/job002/frames/TS_45_006_-9_0.star     3.919413     0.000000     3.919413 CtfFind/job003/frames/TS_45_006_-9_0_PS.ctf:mrc 30299.937500 29958.808594   341.128906     -4.99136     0.031532     7.239369     0.000000    -16.51000    85.213560     2.331962    75.917174 [0.0800016517758,-0.996512651443,-0.0237127585468,3725.31851641] [0.955426590187,0.0834419503808,-0.283191653415,322.285342689] [0.284182697535,0,0.958770155907,-2006.52062893]  [0,0,0,1] 
frames/TS_45_007_-12.0.mrc           10            8    -11.99900    85.000000     -3.00000    21.000000 MotionCorr/job002/frames/TS_45_007_-12_0_PS.mrc MotionCorr/job002/frames/TS_45_007_-12_0.mrc MotionCorr/job002/frames/TS_45_007_-12_0.star     3.499355     0.000000     3.499355 CtfFind/job003/frames/TS_45_007_-12_0_PS.ctf:mrc 30585.158203 29632.613281   952.544922    21.856918     0.034449     6.399085     0.000000    -19.51000    85.209507     5.568592   103.158114 [0.0787173813804,-0.996506750584,-0.0278907501116,3736.53974654] [0.939290525091,0.0835123956203,-0.332804735855,449.014680138] [0.333971381187,0,0.942583203316,-2081.81756735]  [0,0,0,1] 
frames/TS_45_008_12.0.mrc           10            9    11.998500    85.000000     -3.00000    24.000000 MotionCorr/job002/frames/TS_45_008_12_0_PS.mrc MotionCorr/job002/frames/TS_45_008_12_0.mrc MotionCorr/job002/frames/TS_45_008_12_0.star     2.175630     0.000000     2.175630 CtfFind/job003/frames/TS_45_008_12_0_PS.ctf:mrc 29934.689453 29698.529297   236.160156    77.975121     0.038265     6.515432     0.000000     4.490000    85.239847     -8.23844    -80.09576 [0.0827301483881,-0.996550798416,0.00649647535643,3666.79403665] [0.993492400404,0.0829848274589,0.0780150769916,-410.307264547] [-0.0782850980759,0,0.996931016445,-1338.82632852]  [0,0,0,1] 
frames/TS_45_009_15.0.mrc           10           10    14.999700    85.000000     -3.00000    27.000000 MotionCorr/job002/frames/TS_45_009_15_0_PS.mrc MotionCorr/job002/frames/TS_45_009_15_0.mrc MotionCorr/job002/frames/TS_45_009_15_0.star     2.464029     0.000000     2.464029 CtfFind/job003/frames/TS_45_009_15_0_PS.ctf:mrc 29936.607422 29516.982422   419.625000    72.192078     0.030210     7.544185     0.000000     7.490000    85.243561     -5.51713    -84.55697 [0.0822126973349,-0.996556162834,0.0108089096432,3663.38680505] [0.988053201547,0.0829202011228,0.12990423772,-480.437957475] [-0.130353152752,0,0.991467654705,-1226.49517655]  [0,0,0,1] 
frames/TS_45_010_-15.0.mrc           10           11    -15.00370    85.000000     -3.00000    30.000000 MotionCorr/job002/frames/TS_45_010_-15_0_PS.mrc MotionCorr/job002/frames/TS_45_010_-15_0.mrc MotionCorr/job002/frames/TS_45_010_-15_0.star     3.315293     0.000000     3.315293 CtfFind/job003/frames/TS_45_010_-15_0_PS.ctf:mrc 30624.458984 30163.958984   460.500000    67.533478     0.020347     6.575207     0.000000    -22.51000    85.205292     1.057741    88.035766 [0.0772176332276,-0.996500611305,-0.0320003817677,3742.35004066] [0.920579967119,0.083585806191,-0.38150496414,548.13757811] [0.382844686508,0,0.923812747002,-2151.40849352]  [0,0,0,1] 
frames/TS_45_011_-18.0.mrc           10           12    -18.00180    85.000000     -3.00000    33.000000 MotionCorr/job002/frames/TS_45_011_-18_0_PS.mrc MotionCorr/job002/frames/TS_45_011_-18_0.mrc MotionCorr/job002/frames/TS_45_011_-18_0.star     3.974201     0.000000     3.974201 CtfFind/job003/frames/TS_45_011_-18_0_PS.ctf:mrc 30361.167969 29658.494141   702.673828    -50.10475     0.021153     8.740214     0.000000    -25.51000    85.200888     2.518230   109.546261 [0.0755061867752,-0.996494174004,-0.0360307825849,3752.88750389] [0.89934606317,0.0836624279618,-0.429158773004,677.86655576] [0.430668622255,0,0.902510106564,-2215.10240436]  [0,0,0,1] 
frames/TS_45_012_18.0.mrc           10           13    17.999800    85.000000     -3.00000    36.000000 MotionCorr/job002/frames/TS_45_012_18_0_PS.mrc MotionCorr/job002/frames/TS_45_012_18_0.mrc MotionCorr/job002/frames/TS_45_012_18_0.star     3.001277     0.000000     3.001277 CtfFind/job003/frames/TS_45_012_18_0_PS.ctf:mrc 30286.896484 30075.224609   211.671875    -42.39640     0.028972     6.761298     0.000000    10.490000    85.247327    -12.18877    -95.29597 [0.081469845216,-0.996561646461,0.0150848360646,3653.52762765] [0.97990579156,0.0828546211123,0.181437907305,-549.267294449] [-0.182063907385,0,0.983286678791,-1110.80220342]  [0,0,0,1] 
frames/TS_45_013_21.0.mrc           10           14    20.999900    85.000000     -3.00000    39.000000 MotionCorr/job002/frames/TS_45_013_21_0_PS.mrc MotionCorr/job002/frames/TS_45_013_21_0.mrc MotionCorr/job002/frames/TS_45_013_21_0.star     2.591618     0.000000     2.591618 CtfFind/job003/frames/TS_45_013_21_0_PS.ctf:mrc 30471.669922 29636.603516   835.066406    87.344292     0.030133     6.761298     0.000000    13.490000    85.251156    -10.58681   -106.66479 [0.0805040275423,-0.996567189693,0.0193124455713,3650.31557224] [0.969072577463,0.0827880948782,0.23247484602,-612.444571489] [-0.233275637031,0,0.972410678864,-992.064744234]  [0,0,0,1] 
frames/TS_45_014_-21.0.mrc           10           15    -20.99990    85.000000     -3.00000    42.000000 MotionCorr/job002/frames/TS_45_014_-21_0_PS.mrc MotionCorr/job002/frames/TS_45_014_-21_0.mrc MotionCorr/job002/frames/TS_45_014_-21_0.star     3.956411     0.000000     3.956411 CtfFind/job003/frames/TS_45_014_-21_0_PS.ctf:mrc 30548.208984 30233.767578   314.441406    44.728603     0.030471     7.875797     0.000000    -28.51000    85.196254     -2.35618    96.673039 [0.0735878830483,-0.996487379074,-0.0399715931563,3759.01105956] [0.87564715498,0.0837430879474,-0.475635530979,785.282469133] [0.477312147617,0,0.878733813763,-2272.72501588]  [0,0,0,1] 
frames/TS_45_015_-24.0.mrc           10           16    -24.00010    85.000000     -3.00000    45.000000 MotionCorr/job002/frames/TS_45_015_-24_0_PS.mrc MotionCorr/job002/frames/TS_45_015_-24_0.mrc MotionCorr/job002/frames/TS_45_015_-24_0.star     3.678638     0.000000     3.678638 CtfFind/job003/frames/TS_45_015_-24_0_PS.ctf:mrc 31573.527344 30576.505859   997.021484    33.492687     0.019903    10.696979     0.000000    -31.51000    85.191361     1.594883   115.617196 [0.0714675965322,-0.996480226517,-0.0438125547874,3771.92548697] [0.849548177659,0.0838281437755,-0.520807721042,919.1013061] [0.522647321224,0,0.852548956871,-2324.11807775]  [0,0,0,1] 
frames/TS_45_016_24.0.mrc           10           17    23.999600    85.000000     -3.00000    48.000000 MotionCorr/job002/frames/TS_45_016_24_0_PS.mrc MotionCorr/job002/frames/TS_45_016_24_0.mrc MotionCorr/job002/frames/TS_45_016_24_0.star     2.734297     0.000000     2.734297 CtfFind/job003/frames/TS_45_016_24_0_PS.ctf:mrc 30384.574219 30190.369141   194.205078    -14.57088     0.023074     8.848118     0.000000    16.490000    85.255100     -7.30671   -107.38421 [0.0793172347764,-0.996572852135,0.0234797776755,3648.87919413] [0.95558309163,0.0827195495367,0.282875198627,-661.461936571] [-0.283847987652,0,0.958869278431,-870.607942343]  [0,0,0,1] 
frames/TS_45_017_27.0.mrc           10           18    26.999700    85.000000     -3.00000    51.000000 MotionCorr/job002/frames/TS_45_017_27_0_PS.mrc MotionCorr/job002/frames/TS_45_017_27_0.mrc MotionCorr/job002/frames/TS_45_017_27_0.star     2.303337     0.000000     2.303337 CtfFind/job003/frames/TS_45_017_27_0_PS.ctf:mrc 30310.994141 29655.949219   655.044922     -0.80704     0.030339     7.465600     0.000000    19.490000    85.259153     -9.46929   -120.24038 [0.0779131689362,-0.99657869339,0.0275751977806,3643.95396409] [0.939474465577,0.0826489776373,0.332500841024,-713.065095373] [-0.333642333746,0,0.942699730396,-746.764928102]  [0,0,0,1] 
frames/TS_45_018_-27.0.mrc           10           19    -27.00020    85.000000     -3.00000    54.000000 MotionCorr/job002/frames/TS_45_018_-27_0_PS.mrc MotionCorr/job002/frames/TS_45_018_-27_0.mrc MotionCorr/job002/frames/TS_45_018_-27_0.star     4.816189     0.000000     4.816189 CtfFind/job003/frames/TS_45_018_-27_0_PS.ctf:mrc 31194.167969 30909.802734   284.365234    66.424065     0.022365    10.238537     0.000000    -34.51000    85.186140     -0.75334   102.135150 [0.0691514689992,-0.996472597122,-0.0475442537737,3780.40060876] [0.821120683006,0.0839188992977,-0.564551566245,1031.40385143] [0.566550016403,0,0.824027359486,-2369.14107203]  [0,0,0,1] 
frames/TS_45_019_-30.0.mrc           10           20    -29.99980    85.000000     -3.00000    57.000000 MotionCorr/job002/frames/TS_45_019_-30_0_PS.mrc MotionCorr/job002/frames/TS_45_019_-30_0.mrc MotionCorr/job002/frames/TS_45_019_-30_0.star     4.683230     0.000000     4.683230 CtfFind/job003/frames/TS_45_019_-30_0_PS.ctf:mrc 30311.609375 29844.253906   467.355469    82.197853     0.020600     8.532114     0.000000    -37.51000    85.180528     2.767197   113.627255 [0.066645876348,-0.996464371681,-0.0511576615662,3793.42325857] [0.790442476767,0.0840165391564,-0.606747047677,1164.37087671] [0.608899891376,0,0.793247103691,-2407.67043829]  [0,0,0,1] 
frames/TS_45_020_30.0.mrc           10           21    29.997800    85.000000     -3.00000    60.000000 MotionCorr/job002/frames/TS_45_020_30_0_PS.mrc MotionCorr/job002/frames/TS_45_020_30_0.mrc MotionCorr/job002/frames/TS_45_020_30_0.star     3.005758     0.000000     3.005758 CtfFind/job003/frames/TS_45_020_30_0_PS.ctf:mrc 30572.978516 29399.945312  1173.033203     -3.74633     0.016982     9.307761     0.000000    22.490000    85.263367    -11.80793   -121.23730 [0.0762954946557,-0.996584773064,0.0315870275046,3639.45140297] [0.920790834647,0.0825756788254,0.381215765771,-749.362085232] [-0.382522165775,0,0.923946321011,-620.875149965]  [0,0,0,1] 
frames/TS_45_021_33.0.mrc           10           22    32.998000    85.000000     -3.00000    63.000000 MotionCorr/job002/frames/TS_45_021_33_0_PS.mrc MotionCorr/job002/frames/TS_45_021_33_0.mrc MotionCorr/job002/frames/TS_45_021_33_0.star     3.404095     0.000000     3.404095 CtfFind/job003/frames/TS_45_021_33_0_PS.ctf:mrc 16938.658203 16612.652344   326.005859    -28.94732     0.020109     4.842551     0.000000    25.490000    85.267766    -10.42800   -134.02140 [0.0744687351525,-0.996591150761,0.0355038103443,3638.26467051] [0.899583396159,0.0824991688132,0.428886541724,-787.77005142] [-0.430353552103,0,0.902660429478,-493.28354001]  [0,0,0,1] 
frames/TS_45_022_-33.0.mrc           10           23    -32.99950    85.000000     -3.00000    66.000000 MotionCorr/job002/frames/TS_45_022_-33_0_PS.mrc MotionCorr/job002/frames/TS_45_022_-33_0.mrc MotionCorr/job002/frames/TS_45_022_-33_0.star     5.120304     0.000000     5.120304 CtfFind/job003/frames/TS_45_022_-33_0_PS.ctf:mrc 30507.146484 30315.732422   191.414062    -16.72338     0.017689    11.376152     0.000000    -40.51000    85.174444    11.746930   113.100198 [0.063957533105,-0.996455430984,-0.0546441998544,3810.66352517] [0.757597680108,0.0841222628951,-0.647278233404,1290.25538854] [0.649580717087,0,0.760292589664,-2439.60031867]  [0,0,0,1] 
frames/TS_45_023_-36.0.mrc           10           24    -35.99960    85.000000     -3.00000    69.000000 MotionCorr/job002/frames/TS_45_023_-36_0_PS.mrc MotionCorr/job002/frames/TS_45_023_-36_0.mrc MotionCorr/job002/frames/TS_45_023_-36_0.star     4.785240     0.000000     4.785240 CtfFind/job003/frames/TS_45_023_-36_0_PS.ctf:mrc 30640.000000 28982.396484  1657.603516    -80.59010     0.019800    11.198400     0.000000    -43.51000    85.167786    12.163203   120.479656 [0.0610940260658,-0.996445655823,-0.0579963318599,3821.7075373] [0.722676434475,0.0842380821705,-0.686034053084,1423.46623596] [0.688481152058,0,0.725254237652,-2464.84366059]  [0,0,0,1] 
frames/TS_45_024_36.0.mrc           10           25    35.998100    85.000000     -3.00000    72.000000 MotionCorr/job002/frames/TS_45_024_36_0_PS.mrc MotionCorr/job002/frames/TS_45_024_36_0.mrc MotionCorr/job002/frames/TS_45_024_36_0.star     4.099770     0.000000     4.099770 CtfFind/job003/frames/TS_45_024_36_0_PS.ctf:mrc 32235.853516 30545.447266  1690.406250    -38.68248     0.015053    12.147416     0.000000    28.490000    85.272394    -12.63271   -131.36143 [0.0724378640947,-0.996597766876,0.0393141808539,3634.99097058] [0.875910184662,0.0824187397957,0.475382479066,-808.036331218] [-0.477005362511,0,0.878900408745,-364.339888096]  [0,0,0,1] 
frames/TS_45_025_39.0.mrc           10           26    38.996700    85.000000     -3.00000    75.000000 MotionCorr/job002/frames/TS_45_025_39_0_PS.mrc MotionCorr/job002/frames/TS_45_025_39_0.mrc MotionCorr/job002/frames/TS_45_025_39_0.star     4.380332     0.000000     4.380332 CtfFind/job003/frames/TS_45_025_39_0_PS.ctf:mrc 29667.322266 29181.765625   485.556641    -84.37386     0.019095     9.188430     0.000000    31.490000    85.277286     -0.18033   -136.93093 [0.0702085068867,-0.996604800224,0.0430069724827,3643.14855165] [0.849836153806,0.082333676517,0.520576233597,-827.634328818] [-0.522349715233,0,0.852731347084,-234.39759016]  [0,0,0,1] 
frames/TS_45_026_-39.0.mrc           10           27    -38.99970    85.000000     -3.00000    78.000000 MotionCorr/job002/frames/TS_45_026_-39_0_PS.mrc MotionCorr/job002/frames/TS_45_026_-39_0.mrc MotionCorr/job002/frames/TS_45_026_-39_0.star     5.409809     0.000000     5.409809 CtfFind/job003/frames/TS_45_026_-39_0_PS.ctf:mrc 31950.476562 31181.599609   768.876953    59.556244     0.020132     7.465600     0.000000    -46.51000    85.160437    23.132602   119.535756 [0.0580629632612,-0.996434867382,-0.0612069891045,3840.68955264] [0.685774327608,0.08436588943,-0.722908019855,1551.62660015] [0.725494503975,0,0.688227951527,-2483.33093524]  [0,0,0,1] 
frames/TS_45_027_-42.0.mrc           10           28    -41.99990    85.000000     -3.00000    81.000000 MotionCorr/job002/frames/TS_45_027_-42_0_PS.mrc MotionCorr/job002/frames/TS_45_027_-42_0.mrc MotionCorr/job002/frames/TS_45_027_-42_0.star     4.851980     0.000000     4.851980 CtfFind/job003/frames/TS_45_027_-42_0_PS.ctf:mrc 30571.468750 30521.628906    49.839844    24.294809     0.017674    10.238537     0.000000    -49.51000    85.152226    19.728841   128.974570 [0.0548727787784,-0.996422767639,-0.0642704734821,3849.11964424] [0.6469926053,0.0845086723566,-0.757798711999,1688.2322312] [0.760519266129,0,0.649315357208,-2495.01156807]  [0,0,0,1] 
frames/TS_45_028_42.0.mrc           10           29    41.996900    85.000000     -3.00000    84.000000 MotionCorr/job002/frames/TS_45_028_42_0_PS.mrc MotionCorr/job002/frames/TS_45_028_42_0.mrc MotionCorr/job002/frames/TS_45_028_42_0.star     4.127734     0.000000     4.127734 CtfFind/job003/frames/TS_45_028_42_0_PS.ctf:mrc 30594.492188 29368.460938  1226.031250    -72.72118     0.017876    10.859054     0.000000    34.490000    85.282506    -18.97080   -139.06377 [0.0677865617178,-0.99661231041,0.0465709949549,3628.74255903] [0.821432790006,0.0822427868843,0.56434404327,-837.87742239] [-0.566262364388,0,0.824225008488,-103.812783957]  [0,0,0,1] 
frames/TS_45_029_45.0.mrc           10           30    44.997000    85.000000     -3.00000    87.000000 MotionCorr/job002/frames/TS_45_029_45_0_PS.mrc MotionCorr/job002/frames/TS_45_029_45_0.mrc MotionCorr/job002/frames/TS_45_029_45_0.star     5.115823     0.000000     5.115823 CtfFind/job003/frames/TS_45_029_45_0_PS.ctf:mrc 27920.990234 27203.753906   717.236328     -4.16295     0.020946    25.000000     0.000000    37.490000    85.288112     -8.35707   -146.88153 [0.0651790323805,-0.996620357037,0.0499955592435,3636.69889045] [0.790777984115,0.082145370543,0.606566039865,-845.49690541] [-0.608622968197,0,0.79345959425,27.0565450191]  [0,0,0,1] 
frames/TS_45_030_-45.0.mrc           10           31    -45.00000    85.000000     -3.00000    90.000000 MotionCorr/job002/frames/TS_45_030_-45_0_PS.mrc MotionCorr/job002/frames/TS_45_030_-45_0.mrc MotionCorr/job002/frames/TS_45_030_-45_0.star     5.476119     0.000000     5.476119 CtfFind/job003/frames/TS_45_030_-45_0_PS.ctf:mrc 30522.503906 29953.201172   569.302734    -70.29492     0.015858    10.539670     0.000000    -52.51000    85.142945    33.034275   130.694493 [0.051532165532,-0.996409058571,-0.0671823005217,3869.99707019] [0.606437438766,0.0846700966358,-0.79061032732,1819.51115573] [0.79345959425,0,0.608622968197,-2499.85364079]  [0,0,0,1] 
frames/TS_45_031_-48.0.mrc           10           32    -47.99960    85.000000     -3.00000    93.000000 MotionCorr/job002/frames/TS_45_031_-48_0_PS.mrc MotionCorr/job002/frames/TS_45_031_-48_0.mrc MotionCorr/job002/frames/TS_45_031_-48_0.star     5.227598     0.000000     5.227598 CtfFind/job003/frames/TS_45_031_-48_0_PS.ctf:mrc 33683.097656 32860.945312   822.152344    22.281443     0.017797    11.944960     0.000000    -55.51000    85.132290    21.820758   135.695148 [0.0480504202885,-0.99639326334,-0.0699399366656,3872.75911555] [0.564220064548,0.0848553925753,-0.821252245933,1953.2423791] [0.824225008488,0,0.566262423992,-2497.84365296]  [0,0,0,1] 
frames/TS_45_032_48.0.mrc           10           33    47.996100    85.000000     -3.00000    96.000000 MotionCorr/job002/frames/TS_45_032_48_0_PS.mrc MotionCorr/job002/frames/TS_45_032_48_0.mrc MotionCorr/job002/frames/TS_45_032_48_0.star     5.886334     0.000000     5.886334 CtfFind/job003/frames/TS_45_032_48_0_PS.ctf:mrc 11543.672852 11027.696289   515.976562    30.923590     0.022009    25.000000     0.000000    40.490000    85.294206    -27.06543   -155.73335 [0.0623924535555,-0.996629118919,0.0532693557913,3623.5208326] [0.757955705527,0.0820392742753,0.647126532952,-847.037799772] [-0.649315297604,0,0.760519325733,157.851606607]  [0,0,0,1] 
frames/TS_45_033_51.0.mrc           10           34    50.996300    85.000000     -3.00000    99.000000 MotionCorr/job002/frames/TS_45_033_51_0_PS.mrc MotionCorr/job002/frames/TS_45_033_51_0.mrc MotionCorr/job002/frames/TS_45_033_51_0.star     6.912369     0.000000     6.912369 CtfFind/job003/frames/TS_45_033_51_0_PS.ctf:mrc 38020.121094 37983.558594    36.562500    88.482826     0.019772     7.706425     0.000000    43.490000    85.300846    -13.07120   -164.63610 [0.0594353460758,-0.996638596058,0.0563823244061,3635.15064521] [0.723055823889,0.0819239094853,0.685914539377,-841.783942482] [-0.688227951527,0,0.725494503975,288.214147091]  [0,0,0,1] 
frames/TS_45_034_-51.0.mrc           10           35    -50.99930    85.000000     -3.00000   102.000000 MotionCorr/job002/frames/TS_45_034_-51_0_PS.mrc MotionCorr/job002/frames/TS_45_034_-51_0.mrc MotionCorr/job002/frames/TS_45_034_-51_0.star     6.316799     0.000000     6.316799 CtfFind/job003/frames/TS_45_034_-51_0_PS.ctf:mrc 30722.902344 29921.128906   801.773438    64.377510     0.014028    11.944960     0.000000    -58.51000    85.119892    39.854578   147.057370 [0.0444368669706,-0.996374905109,-0.0725427837988,3897.21216161] [0.520456207338,0.0850710943341,-0.849640055646,2091.33686531] [0.852731287479,0,0.522349774837,-2488.98723722]  [0,0,0,1] 
frames/TS_45_035_-54.0.mrc           10           36    -53.99990    85.000000     -3.00000   105.000000 MotionCorr/job002/frames/TS_45_035_-54_0_PS.mrc MotionCorr/job002/frames/TS_45_035_-54_0.mrc MotionCorr/job002/frames/TS_45_035_-54_0.star     6.219190     0.000000     6.219190 CtfFind/job003/frames/TS_45_035_-54_0_PS.ctf:mrc 30694.880859 29769.830078   925.050781    -34.76848     0.018545    12.573642     0.000000    -61.51000    85.105160    19.906527   146.092171 [0.0407015205773,-0.9963529706,-0.0749940801978,3893.5395959] [0.475265739623,0.0853271707892,-0.875694973727,2219.57306273] [0.87890034914,0,0.477005392313,-2473.30878675]  [0,0,0,1] 
frames/TS_45_036_54.0.mrc           10           37    53.996900    85.000000     -3.00000   108.000000 MotionCorr/job002/frames/TS_45_036_54_0_PS.mrc MotionCorr/job002/frames/TS_45_036_54_0.mrc MotionCorr/job002/frames/TS_45_036_54_0.star     7.640386     0.000000     7.640386 CtfFind/job003/frames/TS_45_036_54_0_PS.ctf:mrc 32642.964844 32550.144531    92.820312    -43.65293     0.012085     9.685102     0.000000    46.490000    85.308193    -21.66275   -170.68464 [0.0563150541759,-0.996649086475,0.0593229481484,3630.63716164] [0.686174111254,0.0817960724235,0.722823973418,-827.609391185] [-0.725254237652,0,0.688481152058,417.786747217]  [0,0,0,1] 
frames/TS_45_037_57.0.mrc           10           38    56.996500    85.000000     -3.00000   111.000000 MotionCorr/job002/frames/TS_45_037_57_0_PS.mrc MotionCorr/job002/frames/TS_45_037_57_0.mrc MotionCorr/job002/frames/TS_45_037_57_0.star     9.211840     0.000000     9.211840 CtfFind/job003/frames/TS_45_037_57_0_PS.ctf:mrc 31261.748047 31175.753906    85.994141     2.727859     0.014185    14.052894     0.000000    49.490000    85.316396    -17.95376   -179.67886 [0.0530403878518,-0.996660768986,0.0620803682677,3635.82112542] [0.647411676416,0.0816532596946,0.757753797069,-808.856019676] [-0.760292589664,0,0.649580776691,546.214014292]  [0,0,0,1] 
frames/TS_45_038_-57.0.mrc           10           39    -56.99900    85.000000     -3.00000   114.000000 MotionCorr/job002/frames/TS_45_038_-57_0_PS.mrc MotionCorr/job002/frames/TS_45_038_-57_0.mrc MotionCorr/job002/frames/TS_45_038_-57_0.star     7.891754     0.000000     7.891754 CtfFind/job003/frames/TS_45_038_-57_0_PS.ctf:mrc 43326.363281 42367.945312   958.417969    -88.72334     0.016785    25.000000     0.000000    -64.51000    85.087292    24.552050   149.930288 [0.0368545643125,-0.996326327324,-0.0773019276633,3908.08312122] [0.428772544325,0.0856378823519,-0.899344350522,2350.25514502] [0.902660429478,0,0.430353522301,-2450.85114241]  [0,0,0,1] 
frames/TS_45_039_-60.0.mrc           10           40    -59.99910    85.000000     -3.00000   117.000000 MotionCorr/job002/frames/TS_45_039_-60_0_PS.mrc MotionCorr/job002/frames/TS_45_039_-60_0.mrc MotionCorr/job002/frames/TS_45_039_-60_0.star     8.582483     0.000000     8.582483 CtfFind/job003/frames/TS_45_039_-60_0_PS.ctf:mrc 30520.683594 29320.503906  1200.179688    -58.44044     0.023147    12.356855     0.000000    -67.51000    85.065002     9.747993   160.586219 [0.0329066797796,-0.996292948723,-0.0794829844398,3908.2177501] [0.381104166184,0.0860255435109,-0.920521204621,2484.47514236] [0.923946321011,0,0.382522195578,-2421.67593539]  [0,0,0,1] 
frames/TS_45_040_60.0.mrc           10           41    59.995200    85.000000     -3.00000   120.000000 MotionCorr/job002/frames/TS_45_040_60_0_PS.mrc MotionCorr/job002/frames/TS_45_040_60_0.mrc MotionCorr/job002/frames/TS_45_040_60_0.star     9.470117     0.000000     9.470117 CtfFind/job003/frames/TS_45_040_60_0_PS.ctf:mrc 21664.197266 21520.802734   143.394531     -9.86758     0.023710     6.698108     0.000000    52.490000    85.325675    -23.86246   -186.41982 [0.0496204196357,-0.996674001217,0.0646432274294,3634.4664272] [0.606874691079,0.0814919173717,0.79060876479,-781.735121863] [-0.793247103691,0,0.608899891376,673.144370317]  [0,0,0,1] 
 
