
# version 30001

data_220728_TS_43

loop_ 
_rlnMicrographMovieName #1 
_rlnTomoTiltMovieFrameCount #2 
_rlnTomoTiltMovieIndex #3 
_rlnTomoNominalStageTiltAngle #4 
_rlnTomoNominalTiltAxisAngle #5 
_rlnTomoNominalDefocus #6 
_rlnMicrographPreExposure #7 
_rlnCtfPowerSpectrum #8 
_rlnMicrographName #9 
_rlnMicrographMetadata #10 
_rlnAccumMotionTotal #11 
_rlnAccumMotionEarly #12 
_rlnAccumMotionLate #13 
_rlnCtfImage #14 
_rlnDefocusU #15 
_rlnDefocusV #16 
_rlnCtfAstigmatism #17 
_rlnDefocusAngle #18 
_rlnCtfFigureOfMerit #19 
_rlnCtfMaxResolution #20 
_rlnTomoXTilt #21 
_rlnTomoYTilt #22 
_rlnTomoZRot #23 
_rlnTomoXShiftAngst #24 
_rlnTomoYShiftAngst #25 
_rlnTomoProjX #26 
_rlnTomoProjY #27 
_rlnTomoProjZ #28 
_rlnTomoProjW #29 
frames/TS_43_000_0.0.mrc           10            1     0.000000    85.000000     -2.50000     0.000000 MotionCorr/job002/frames/TS_43_000_0_0_PS.mrc MotionCorr/job002/frames/TS_43_000_0_0.mrc MotionCorr/job002/frames/TS_43_000_0_0.star     2.811759     0.895073     1.916686 CtfFind/job003/frames/TS_43_000_0_0_PS.ctf:mrc 25510.873047 24991.343750   519.529297    70.643059     0.048094     5.348489     0.000000     -5.51000    85.185070     -2.06791     -3.76958 [0.0835497102899,-0.996470987797,-0.0080596400655,3691.40023363] [0.991866741718,0.0839375481009,-0.0956806301716,-91.8799128999] [0.0960194841027,0,0.995379447937,-1685.10814011]  [0,0,0,1] 
frames/TS_43_001_3.0.mrc           10            2     3.000130    85.000000     -2.50000     3.000000 MotionCorr/job002/frames/TS_43_001_3_0_PS.mrc MotionCorr/job002/frames/TS_43_001_3_0.mrc MotionCorr/job002/frames/TS_43_001_3_0.star     3.171179     0.000000     3.171179 CtfFind/job003/frames/TS_43_001_3_0_PS.ctf:mrc 25368.458984 25206.175781   162.283203    54.292053     0.044635     5.555795     0.000000     -2.51000    85.190389     0.477482    -24.59538 [0.0837645712905,-0.996478796005,-0.00367188772334,3686.28997138] [0.995522777873,0.0838450118899,-0.0436395460522,-192.495056744] [0.0437937527895,0,0.999040603638,-1586.14841104]  [0,0,0,1] 
frames/TS_43_002_-3.0.mrc           10            3     -2.99913    85.000000     -2.50000     6.000000 MotionCorr/job002/frames/TS_43_002_-3_0_PS.mrc MotionCorr/job002/frames/TS_43_002_-3_0.mrc MotionCorr/job002/frames/TS_43_002_-3_0.star     3.153339     0.000000     3.153339 CtfFind/job003/frames/TS_43_002_-3_0_PS.ctf:mrc 25405.111328 24993.517578   411.593750    78.754791     0.035399     5.779819     0.000000     -8.51000    85.179694     6.849545    15.178602 [0.0831058620088,-0.996463119984,-0.0124350824251,3705.44087662] [0.985492129226,0.0840310379863,-0.14745862157,12.3850068186] [0.147982016206,0,0.988990068436,-1779.44913507]  [0,0,0,1] 
frames/TS_43_003_-6.0.mrc           10            4     -5.99927    85.000000     -2.50000     9.000000 MotionCorr/job002/frames/TS_43_003_-6_0_PS.mrc MotionCorr/job002/frames/TS_43_003_-6_0.mrc MotionCorr/job002/frames/TS_43_003_-6_0.star     3.384738     0.000000     3.384738 CtfFind/job003/frames/TS_43_003_-6_0_PS.ctf:mrc 25664.062500 25064.664062   599.398438    38.241795     0.038579     5.011871     0.000000    -11.51000    85.174243     6.631352    37.401699 [0.0824340429841,-0.996455132961,-0.0167863795731,3713.13386191] [0.976416290389,0.0841258242726,-0.198831621967,123.868165849] [0.199538961053,0,0.97988986969,-1868.91272664]  [0,0,0,1] 
frames/TS_43_004_6.0.mrc           10            5     5.999270    85.000000     -2.50000    12.000000 MotionCorr/job002/frames/TS_43_004_6_0_PS.mrc MotionCorr/job002/frames/TS_43_004_6_0.mrc MotionCorr/job002/frames/TS_43_004_6_0.star     2.971336     0.000000     2.971336 CtfFind/job003/frames/TS_43_004_6_0_PS.ctf:mrc 25492.580078 24864.146484   628.433594    19.930271     0.040582     5.119268     0.000000     0.490000    85.195673     -1.37365    -39.08722 [0.0837501183477,-0.996486544609,0.000716257999018,3678.38094626] [0.99645007594,0.0837531834841,0.00852196213683,-283.142955387] [-0.00855200923979,0,0.999963402748,-1482.84108564]  [0,0,0,1] 
frames/TS_43_005_9.0.mrc           10            6     8.998400    85.000000     -2.50000    15.000000 MotionCorr/job002/frames/TS_43_005_9_0_PS.mrc MotionCorr/job002/frames/TS_43_005_9_0.mrc MotionCorr/job002/frames/TS_43_005_9_0.star     3.466275     0.000000     3.466275 CtfFind/job003/frames/TS_43_005_9_0_PS.ctf:mrc 25555.878906 25252.375000   303.503906    55.636456     0.034324     6.342456     0.000000     3.490000    85.200980     0.206748    -23.58186 [0.083505614335,-0.996494293213,0.00509279325268,3673.49131454] [0.994646255765,0.0836607664824,0.0606609241846,-346.073472253] [-0.0608743317425,0,0.998145461082,-1375.46952814]  [0,0,0,1] 
frames/TS_43_006_-9.0.mrc           10            7     -8.99890    85.000000     -2.50000    18.000000 MotionCorr/job002/frames/TS_43_006_-9_0_PS.mrc MotionCorr/job002/frames/TS_43_006_-9_0.mrc MotionCorr/job002/frames/TS_43_006_-9_0.star     3.272591     0.000000     3.272591 CtfFind/job003/frames/TS_43_006_-9_0_PS.ctf:mrc 25327.894531 25227.646484   100.248047    64.389687     0.041756     5.470974     0.000000    -14.51000    85.168666     5.731776    23.316887 [0.0815364980867,-0.996446967125,-0.0211019562808,3720.7196325] [0.964664240111,0.0842228755355,-0.249658779787,212.985706536] [0.250548988581,0,0.968103945255,-1953.25389504]  [0,0,0,1] 
frames/TS_43_007_-12.0.mrc           10            8    -11.99900    85.000000     -2.50000    21.000000 MotionCorr/job002/frames/TS_43_007_-12_0_PS.mrc MotionCorr/job002/frames/TS_43_007_-12_0.mrc MotionCorr/job002/frames/TS_43_007_-12_0.star     3.865036     0.000000     3.865036 CtfFind/job003/frames/TS_43_007_-12_0_PS.ctf:mrc 26148.183594 25435.794922   712.388672    -35.86151     0.026176     6.698108     0.000000    -17.51000    85.162939     5.037334    33.990329 [0.0804152924703,-0.996438503265,-0.0253702736752,3728.83319062] [0.950268008703,0.0843224152923,-0.299800681002,324.698194995] [0.30087223649,0,0.95366448164,-2032.24119544]  [0,0,0,1] 
frames/TS_43_008_12.0.mrc           10            9    11.999000    85.000000     -2.50000    24.000000 MotionCorr/job002/frames/TS_43_008_12_0_PS.mrc MotionCorr/job002/frames/TS_43_008_12_0.mrc MotionCorr/job002/frames/TS_43_008_12_0.star     3.340628     0.000000     3.340628 CtfFind/job003/frames/TS_43_008_12_0_PS.ctf:mrc 25487.314453 24686.501953   800.812500    13.432738     0.033965     7.963306     0.000000     6.490000    85.206316     -0.68517    -40.31780 [0.0830324552867,-0.996502101421,0.00944567281259,3667.26324601] [0.990116123948,0.0835679918528,0.112634426153,-427.184910091] [-0.113029792905,0,0.993591606617,-1264.32782412]  [0,0,0,1] 
frames/TS_43_009_15.0.mrc           10           10    15.000200    85.000000     -2.50000    27.000000 MotionCorr/job002/frames/TS_43_009_15_0_PS.mrc MotionCorr/job002/frames/TS_43_009_15_0.mrc MotionCorr/job002/frames/TS_43_009_15_0.star     3.415802     0.000000     3.415802 CtfFind/job003/frames/TS_43_009_15_0_PS.ctf:mrc 25599.121094 24993.822266   605.298828    51.036716     0.036872     6.761298     0.000000     9.490000    85.211703     -3.38625    -21.19555 [0.0823319870754,-0.99650990963,0.0137628774768,3660.20319556] [0.982872089487,0.0834743827581,0.164300032387,-475.843398255] [-0.164875462651,0,0.986314415932,-1149.7206986]  [0,0,0,1] 
frames/TS_43_010_-15.0.mrc           10           11    -15.00370    85.000000     -2.50000    30.000000 MotionCorr/job002/frames/TS_43_010_-15_0_PS.mrc MotionCorr/job002/frames/TS_43_010_-15_0.mrc MotionCorr/job002/frames/TS_43_010_-15_0.star     3.470683     0.000000     3.470683 CtfFind/job003/frames/TS_43_010_-15_0_PS.ctf:mrc 25829.542969 25227.476562   602.066406    82.574181     0.020006     9.817775     0.000000    -20.51000    85.157022     7.862094    36.394056 [0.0790736557941,-0.996429800987,-0.0295801593771,3739.90630279] [0.933267168459,0.0844252854586,-0.349119960462,434.253592857] [0.350370854139,0,0.936611056328,-2105.65829277]  [0,0,0,1] 
frames/TS_43_011_-18.0.mrc           10           12    -18.00330    85.000000     -2.50000    33.000000 MotionCorr/job002/frames/TS_43_011_-18_0_PS.mrc MotionCorr/job002/frames/TS_43_011_-18_0.mrc MotionCorr/job002/frames/TS_43_011_-18_0.star     5.193599     0.000000     5.193599 CtfFind/job003/frames/TS_43_011_-18_0_PS.ctf:mrc 26186.658203 24511.869141  1674.789062    -76.95079     0.030166     7.963306     0.000000    -23.51000    85.150863     2.062505    21.181506 [0.0775154270217,-0.996420741081,-0.0337207553395,3744.91954261] [0.913708312687,0.0845324248075,-0.39748132272,534.430513536] [0.398909121752,0,0.916990458965,-2173.30393195]  [0,0,0,1] 
frames/TS_43_012_18.0.mrc           10           13    18.000800    85.000000     -2.50000    36.000000 MotionCorr/job002/frames/TS_43_012_18_0_PS.mrc MotionCorr/job002/frames/TS_43_012_18_0.mrc MotionCorr/job002/frames/TS_43_012_18_0.star     3.542149     0.000000     3.542149 CtfFind/job003/frames/TS_43_012_18_0_PS.ctf:mrc 25601.673828 24902.921875   698.751953    67.044174     0.036426     4.942742     0.000000    12.490000    85.217206     -3.77450    -43.73551 [0.081405263247,-0.996517956257,0.0180322058145,3655.38115359] [0.972934159989,0.0833785161376,0.215516151132,-549.296250802] [-0.216269209981,0,0.976333796978,-1031.96227551]  [0,0,0,1] 
frames/TS_43_013_21.0.mrc           10           14    20.999900    85.000000     -2.50000    39.000000 MotionCorr/job002/frames/TS_43_013_21_0_PS.mrc MotionCorr/job002/frames/TS_43_013_21_0.mrc MotionCorr/job002/frames/TS_43_013_21_0.star     3.772576     0.000000     3.772576 CtfFind/job003/frames/TS_43_013_21_0_PS.ctf:mrc 25397.074219 25105.253906   291.820312    50.304066     0.023446     7.388635     0.000000    15.490000    85.222817     -5.57260    -43.62995 [0.0802559817274,-0.996526122093,0.0222418679842,3650.04962542] [0.960329411672,0.0832809880376,0.266142405039,-599.752889941] [-0.267070174217,0,0.963677108288,-911.375313997]  [0,0,0,1] 
frames/TS_43_014_-21.0.mrc           10           15    -21.00140    85.000000     -2.50000    42.000000 MotionCorr/job002/frames/TS_43_014_-21_0_PS.mrc MotionCorr/job002/frames/TS_43_014_-21_0.mrc MotionCorr/job002/frames/TS_43_014_-21_0.star     4.965314     0.000000     4.965314 CtfFind/job003/frames/TS_43_014_-21_0_PS.ctf:mrc 26356.898438 26111.728516   245.169922    -41.16622     0.016786     7.790191     0.000000    -26.51000    85.144412     -0.38161    34.662678 [0.0757448338589,-0.996411204338,-0.0377814895277,3752.72230043] [0.891644995986,0.0846446752548,-0.444752128455,659.22490798] [0.44635400176,0,0.894856452942,-2234.99268293]  [0,0,0,1] 
frames/TS_43_015_-24.0.mrc           10           16    -24.00060    85.000000     -2.50000    45.000000 MotionCorr/job002/frames/TS_43_015_-24_0_PS.mrc MotionCorr/job002/frames/TS_43_015_-24_0.mrc MotionCorr/job002/frames/TS_43_015_-24_0.star     4.427032     0.000000     4.427032 CtfFind/job003/frames/TS_43_015_-24_0_PS.ctf:mrc 26436.167969 25806.654297   629.513672    -74.47058     0.020748     9.188430     0.000000    -29.51000    85.137626     -4.55049    13.862696 [0.0737663459129,-0.996401190758,-0.0417519897576,3759.52694322] [0.86713778109,0.0847626253963,-0.490802781491,761.672022969] [0.492575466633,0,0.870269715786,-2290.55550694]  [0,0,0,1] 
frames/TS_43_016_24.0.mrc           10           17    23.999600    85.000000     -2.50000    48.000000 MotionCorr/job002/frames/TS_43_016_24_0_PS.mrc MotionCorr/job002/frames/TS_43_016_24_0.mrc MotionCorr/job002/frames/TS_43_016_24_0.star     3.616618     0.000000     3.616618 CtfFind/job003/frames/TS_43_016_24_0_PS.ctf:mrc 25818.025391 24998.392578   819.632812     -7.58373     0.036701     6.232153     0.000000    18.490000    85.228601     -9.44982    -41.91525 [0.0788866305361,-0.996534526348,0.0263797888861,3643.72624089] [0.94509245719,0.0831804871559,0.316040111348,-642.654386085] [-0.317139148712,0,0.948379039764,-788.290262222]  [0,0,0,1] 
frames/TS_43_017_27.0.mrc           10           18    26.999700    85.000000     -2.50000    51.000000 MotionCorr/job002/frames/TS_43_017_27_0_PS.mrc MotionCorr/job002/frames/TS_43_017_27_0.mrc MotionCorr/job002/frames/TS_43_017_27_0.star     3.648968     0.000000     3.648968 CtfFind/job003/frames/TS_43_017_27_0_PS.ctf:mrc 26390.865234 25418.761719   972.103516    39.565506     0.020879     9.555968     0.000000    21.490000    85.234592     -8.93138    -33.66979 [0.0773009580556,-0.996543169022,0.030434073005,3641.21747687] [0.927264976222,0.0830762982368,0.365072447886,-674.23180445] [-0.366338819265,0,0.930481493473,-663.044601679]  [0,0,0,1] 
frames/TS_43_018_-27.0.mrc           10           19    -27.00070    85.000000     -2.50000    54.000000 MotionCorr/job002/frames/TS_43_018_-27_0_PS.mrc MotionCorr/job002/frames/TS_43_018_-27_0.mrc MotionCorr/job002/frames/TS_43_018_-27_0.star     3.882026     0.000000     3.882026 CtfFind/job003/frames/TS_43_018_-27_0_PS.ctf:mrc 24770.789062 24669.158203   101.630859    58.320377     0.012605    12.356855     0.000000    -32.51000    85.130427     0.857420    43.413495 [0.0715856978917,-0.996390521526,-0.0456226856118,3773.67880161] [0.840253795599,0.084887817502,-0.53550689425,904.135259618] [0.537446796894,0,0.843297660351,-2339.84008431]  [0,0,0,1] 
frames/TS_43_019_-30.0.mrc           10           20    -29.99980    85.000000     -2.50000    57.000000 MotionCorr/job002/frames/TS_43_019_-30_0_PS.mrc MotionCorr/job002/frames/TS_43_019_-30_0.mrc MotionCorr/job002/frames/TS_43_019_-30_0.star     5.372833     0.000000     5.372833 CtfFind/job003/frames/TS_43_019_-30_0_PS.ctf:mrc 25880.445312 25271.585938   608.859375    59.243546     0.019987    11.198400     0.000000    -35.51000    85.122722     -0.36779    17.601796 [0.0692089532556,-0.996379077435,-0.0493844880325,3783.14453967] [0.811066714024,0.0850218012929,-0.578741803598,1007.97404217] [0.58084499836,0,0.814014196396,-2382.71129131]  [0,0,0,1] 
frames/TS_43_020_30.0.mrc           10           21    29.999800    85.000000     -2.50000    60.000000 MotionCorr/job002/frames/TS_43_020_30_0_PS.mrc MotionCorr/job002/frames/TS_43_020_30_0.mrc MotionCorr/job002/frames/TS_43_020_30_0.star     4.124886     0.000000     4.124886 CtfFind/job003/frames/TS_43_020_30_0_PS.ctf:mrc 38297.734375 37896.691406   401.042969    -80.75376     0.014727    25.000000     0.000000    24.490000    85.240842    -11.86789    -42.82197 [0.075503200377,-0.996552228928,0.0343928772213,3636.71770942] [0.906896055576,0.0829674825072,0.413105199994,-712.104851712] [-0.414534419775,0,0.910033643246,-535.981625319]  [0,0,0,1] 
frames/TS_43_021_33.0.mrc           10           22    33.000000    85.000000     -2.50000    63.000000 MotionCorr/job002/frames/TS_43_021_33_0_PS.mrc MotionCorr/job002/frames/TS_43_021_33_0.mrc MotionCorr/job002/frames/TS_43_021_33_0.star     4.886390     0.000000     4.886390 CtfFind/job003/frames/TS_43_021_33_0_PS.ctf:mrc 25248.968750 24201.677734  1047.291016    12.882710     0.015319     8.848118     0.000000    27.490000    85.247390     -8.59606    -31.26065 [0.0734986765567,-0.996561706066,0.0382446881683,3637.3915764] [0.884041317266,0.0828535556793,0.460006711558,-727.955850264] [-0.461593806744,0,0.887091398239,-407.449483871]  [0,0,0,1] 
frames/TS_43_022_-33.0.mrc           10           23    -33.00000    85.000000     -2.50000    66.000000 MotionCorr/job002/frames/TS_43_022_-33_0_PS.mrc MotionCorr/job002/frames/TS_43_022_-33_0.mrc MotionCorr/job002/frames/TS_43_022_-33_0.star     3.775910     0.000000     3.775910 CtfFind/job003/frames/TS_43_022_-33_0_PS.ctf:mrc 24342.296875 24286.908203    55.388672    -37.47227     0.013598    11.559638     0.000000    -38.51000    85.114418     8.650612    46.184238 [0.0666425374255,-0.996366739273,-0.0530288523789,3800.399543] [0.779656526883,0.0851662307978,-0.620388905758,1154.14838994] [0.622651159763,0,0.782499551773,-2419.05164719]  [0,0,0,1] 
frames/TS_43_023_-36.0.mrc           10           24    -36.00010    85.000000     -2.50000    69.000000 MotionCorr/job002/frames/TS_43_023_-36_0_PS.mrc MotionCorr/job002/frames/TS_43_023_-36_0.mrc MotionCorr/job002/frames/TS_43_023_-36_0.star     4.888428     0.000000     4.888428 CtfFind/job003/frames/TS_43_023_-36_0_PS.ctf:mrc 25693.138672 24706.693359   986.445312    50.132263     0.018968    10.386921     0.000000    -41.51000    85.105395     4.380482    21.312052 [0.0638933825845,-0.996353328228,-0.0565479676299,3807.98664421] [0.746109319582,0.0853231325746,-0.660333886632,1262.42263082] [0.662750720978,0,0.748840093613,-2448.76158237]  [0,0,0,1] 
frames/TS_43_024_36.0.mrc           10           25    35.999600    85.000000     -2.50000    72.000000 MotionCorr/job002/frames/TS_43_024_36_0_PS.mrc MotionCorr/job002/frames/TS_43_024_36_0.mrc MotionCorr/job002/frames/TS_43_024_36_0.star     5.842215     0.000000     5.842215 CtfFind/job003/frames/TS_43_024_36_0_PS.ctf:mrc 25026.570312 24293.765625   732.804688    40.060841     0.019953    12.573642     0.000000    30.490000    85.254312    -16.58261    -51.89470 [0.0712926733871,-0.996571719646,0.0419778308693,3630.3079351] [0.858763550494,0.0827332064509,0.505648468022,-760.90673296] [-0.507387936115,0,0.861717760563,-277.800768614]  [0,0,0,1] 
frames/TS_43_025_39.0.mrc           10           26    38.999200    85.000000     -2.50000    75.000000 MotionCorr/job002/frames/TS_43_025_39_0_PS.mrc MotionCorr/job002/frames/TS_43_025_39_0.mrc MotionCorr/job002/frames/TS_43_025_39_0.star     4.310537     0.000000     4.310537 CtfFind/job003/frames/TS_43_025_39_0_PS.ctf:mrc 26128.001953 25134.275391   993.726562    14.731227     0.018271     8.532114     0.000000    33.490000    85.261666     -3.77641    -28.82505 [0.0688913070576,-0.996582329273,0.0455808781173,3639.21338874] [0.831131833779,0.0826052576303,0.549905647505,-754.684542965] [-0.551791489124,0,0.833982110023,-147.390186787]  [0,0,0,1] 
frames/TS_43_026_-39.0.mrc           10           27    -38.99970    85.000000     -2.50000    78.000000 MotionCorr/job002/frames/TS_43_026_-39_0_PS.mrc MotionCorr/job002/frames/TS_43_026_-39_0.mrc MotionCorr/job002/frames/TS_43_026_-39_0.star     5.767358     0.000000     5.767358 CtfFind/job003/frames/TS_43_026_-39_0_PS.ctf:mrc 40879.140625 40223.937500   655.203125    35.333836     0.023228    25.000000     0.000000    -44.51000    85.095487    17.055045    44.483216 [0.060969148008,-0.996338546276,-0.0599351296683,3828.27485771] [0.710517063791,0.0854953601956,-0.69846690894,1407.62604581] [0.701033711433,0,0.713128149509,-2471.75964713]  [0,0,0,1] 
frames/TS_43_027_-42.0.mrc           10           28    -41.99940    85.000000     -2.50000    81.000000 MotionCorr/job002/frames/TS_43_027_-42_0_PS.mrc MotionCorr/job002/frames/TS_43_027_-42_0.mrc MotionCorr/job002/frames/TS_43_027_-42_0.star     6.139930     0.000000     6.139930 CtfFind/job003/frames/TS_43_027_-42_0_PS.ctf:mrc 25110.382812 24885.287109   225.095703    -74.86308     0.021012    13.030865     0.000000    -47.51000    85.084515    12.142501    27.545850 [0.0578776659595,-0.996322154999,-0.0631845230069,3835.66020777] [0.672977287871,0.0856861025095,-0.734683201606,1524.10235498] [0.737395226955,0,0.675461530685,-2487.98274994]  [0,0,0,1] 
frames/TS_43_028_42.0.mrc           10           29    41.999400    85.000000     -2.50000    84.000000 MotionCorr/job002/frames/TS_43_028_42_0_PS.mrc MotionCorr/job002/frames/TS_43_028_42_0.mrc MotionCorr/job002/frames/TS_43_028_42_0.star     4.054474     0.000000     4.054474 CtfFind/job003/frames/TS_43_028_42_0_PS.ctf:mrc 25468.816406 25035.068359   433.748047    -26.74688     0.025600    10.859054     0.000000    36.490000    85.269548    -18.00094    -49.15265 [0.0663012485908,-0.99659371376,0.0490424433612,3628.68723715] [0.801222101355,0.0824682787061,0.592656855801,-773.775413454] [-0.594682514668,0,0.803960621357,-16.5759027004]  [0,0,0,1] 
frames/TS_43_029_45.0.mrc           10           30    44.999000    85.000000     -2.50000    87.000000 MotionCorr/job002/frames/TS_43_029_45_0_PS.mrc MotionCorr/job002/frames/TS_43_029_45_0.mrc MotionCorr/job002/frames/TS_43_029_45_0.star     4.309941     0.000000     4.309941 CtfFind/job003/frames/TS_43_029_45_0_PS.ctf:mrc 23565.798828 23018.914062   546.884766    77.190292     0.021205    25.000000     0.000000    39.490000    85.278074     -2.16100    -33.49272 [0.0635291877717,-0.996605932713,0.0523508083778,3641.02653583] [0.769116226592,0.0823198929429,0.633785156254,-759.359396413] [-0.635943591595,0,0.771735548973,114.28385973]  [0,0,0,1] 
frames/TS_43_030_-45.0.mrc           10           31    -45.00000    85.000000     -2.50000    90.000000 MotionCorr/job002/frames/TS_43_030_-45_0_PS.mrc MotionCorr/job002/frames/TS_43_030_-45_0.mrc MotionCorr/job002/frames/TS_43_030_-45_0.star     6.837354     0.000000     6.837354 CtfFind/job003/frames/TS_43_030_-45_0_PS.ctf:mrc 24606.908203 23232.357422  1374.550781    -15.94794     0.017717    14.052894     0.000000    -50.51000    85.072208    19.712698    43.895053 [0.0546277116577,-0.996303737164,-0.0662922743503,3852.39246106] [0.633592976931,0.085900247097,-0.768883011544,1665.85292333] [0.771735548973,0,0.635943591595,-2497.38648534]  [0,0,0,1] 
frames/TS_43_031_-48.0.mrc           10           32    -47.99910    85.000000     -2.50000    93.000000 MotionCorr/job002/frames/TS_43_031_-48_0_PS.mrc MotionCorr/job002/frames/TS_43_031_-48_0.mrc MotionCorr/job002/frames/TS_43_031_-48_0.star     7.392439     0.000000     7.392439 CtfFind/job003/frames/TS_43_031_-48_0_PS.ctf:mrc 39944.175781 38403.347656  1540.828125    -15.02576     0.016929    25.000000     0.000000    -53.51000    85.058216    12.655098    29.827706 [0.0512280914576,-0.996282756329,-0.0692560605422,3858.36756722] [0.592471934853,0.0861435979605,-0.800972103825,1785.32168715] [0.803960621357,0,0.594682514668,-2499.94501472]  [0,0,0,1] 
frames/TS_43_032_48.0.mrc           10           33    47.997100    85.000000     -2.50000    96.000000 MotionCorr/job002/frames/TS_43_032_48_0_PS.mrc MotionCorr/job002/frames/TS_43_032_48_0.mrc MotionCorr/job002/frames/TS_43_032_48_0.star     3.062125     0.000000     3.062125 CtfFind/job003/frames/TS_43_032_48_0_PS.ctf:mrc 24915.619141 23889.240234  1026.378906    -86.35110     0.018491     8.848118     0.000000    42.490000    85.287370    -22.46685    -55.45471 [0.0605830648618,-0.996619284153,0.0554947038294,3627.18827025] [0.734902303226,0.0821582004428,0.673177987185,-765.965552559] [-0.675461530685,0,0.737395226955,244.830220938]  [0,0,0,1] 
frames/TS_43_033_51.0.mrc           10           34    50.996300    85.000000     -2.50000    99.000000 MotionCorr/job002/frames/TS_43_033_51_0_PS.mrc MotionCorr/job002/frames/TS_43_033_51_0.mrc MotionCorr/job002/frames/TS_43_033_51_0.star     5.640994     0.000000     5.640994 CtfFind/job003/frames/TS_43_033_51_0_PS.ctf:mrc 41363.085938 40008.539062  1354.546875    -86.84684     0.024151    11.944960     0.000000    45.490000    85.297603     -7.67330    -32.66793 [0.0574709037963,-0.996633946896,0.0584624085924,3639.94854887] [0.698673994733,0.0819802284241,0.710727722288,-732.598500116] [-0.713128149509,0,0.701033711433,374.705731869]  [0,0,0,1] 
frames/TS_43_034_-51.0.mrc           10           35    -51.00030    85.000000     -2.50000   102.000000 MotionCorr/job002/frames/TS_43_034_-51_0_PS.mrc MotionCorr/job002/frames/TS_43_034_-51_0.mrc MotionCorr/job002/frames/TS_43_034_-51_0.star     8.637259     0.000000     8.637259 CtfFind/job003/frames/TS_43_034_-51_0_PS.ctf:mrc 20107.623047 19878.066406   229.556641    10.634278     0.017359     5.082961     0.000000    -56.51000    85.042102    21.686546    52.064040 [0.0476879005196,-0.996258437634,-0.0720758777216,3876.31899896] [0.549726926854,0.0864237695932,-0.830861713946,1931.55713358] [0.833982110023,0,0.551791489124,-2495.65145373]  [0,0,0,1] 
frames/TS_43_035_-54.0.mrc           10           36    -53.99940    85.000000     -2.50000   105.000000 MotionCorr/job002/frames/TS_43_035_-54_0_PS.mrc MotionCorr/job002/frames/TS_43_035_-54_0.mrc MotionCorr/job002/frames/TS_43_035_-54_0.star     9.469158     0.000000     9.469158 CtfFind/job003/frames/TS_43_035_-54_0_PS.ctf:mrc 24597.140625 24286.927734   310.212891    25.629230     0.019089    25.000000     0.000000    -59.51000    85.023226    13.245602    38.368298 [0.0440168767574,-0.996229946613,-0.0747556547706,3881.3711789] [0.505475115888,0.0867519080639,-0.858468979221,2050.67038241] [0.861717700958,0,0.50738799572,-2484.5173955]  [0,0,0,1] 
frames/TS_43_036_54.0.mrc           10           37    53.996900    85.000000     -2.50000   108.000000 MotionCorr/job002/frames/TS_43_036_54_0_PS.mrc MotionCorr/job002/frames/TS_43_036_54_0.mrc MotionCorr/job002/frames/TS_43_036_54_0.star     3.819709     0.000000     3.819709 CtfFind/job003/frames/TS_43_036_54_0_PS.ctf:mrc  8336.378906  6652.858398  1683.520508    -51.07576     0.016493    25.000000     0.000000    48.490000    85.308980    -22.25518    -59.39480 [0.0542012708981,-0.996650218964,0.0612418568378,3631.54979013] [0.660530651181,0.0817822888494,0.746331643268,-729.119493851] [-0.748840093613,0,0.662750720978,503.554105759]  [0,0,0,1] 
frames/TS_43_037_57.0.mrc           10           38    56.996000    85.000000     -2.50000   111.000000 MotionCorr/job002/frames/TS_43_037_57_0_PS.mrc MotionCorr/job002/frames/TS_43_037_57_0.mrc MotionCorr/job002/frames/TS_43_037_57_0.star     7.461687     0.000000     7.461687 CtfFind/job003/frames/TS_43_037_57_0_PS.ctf:mrc 27247.898438 26258.089844   989.808594    40.241585     0.019255    11.944960     0.000000    51.490000    85.321794     -9.49731    -44.80078 [0.0507830579452,-0.996668457985,0.0638201976447,3644.00545991] [0.620576771264,0.0815594047308,0.77989262164,-688.297048893] [-0.782499551773,0,0.622651159763,631.022363901]  [0,0,0,1] 
frames/TS_43_038_-57.0.mrc           10           39    -56.99900    85.000000     -2.50000   114.000000 MotionCorr/job002/frames/TS_43_038_-57_0_PS.mrc MotionCorr/job002/frames/TS_43_038_-57_0.mrc MotionCorr/job002/frames/TS_43_038_-57_0.star    15.545150     0.000000    15.545150 CtfFind/job003/frames/TS_43_038_-57_0_PS.ctf:mrc 12543.478516 11764.203125   779.275391    58.401676     0.019311     5.972480     0.000000    -62.51000    85.000641    23.149576    53.129734 [0.040225421495,-0.996195673943,-0.0773052566592,3900.04622396] [0.459837723708,0.0871446356177,-0.883716613317,2189.96555984] [0.887091398239,0,0.461593776941,-2466.57346189]  [0,0,0,1] 
frames/TS_43_039_-60.0.mrc           10           40    -59.99910    85.000000     -2.50000   117.000000 MotionCorr/job002/frames/TS_43_039_-60_0_PS.mrc MotionCorr/job002/frames/TS_43_039_-60_0.mrc MotionCorr/job002/frames/TS_43_039_-60_0.star    16.248426     0.000000    16.248426 CtfFind/job003/frames/TS_43_039_-60_0_PS.ctf:mrc 25449.355469 25399.517578    49.837891     4.780126     0.016290    25.000000     0.000000    -65.51000    84.973005    11.453447    48.814180 [0.0363236214414,-0.996153533459,-0.0797418036533,3902.75656433] [0.412939867624,0.0876251161098,-0.906533229286,2313.82852831] [0.910033643246,0,0.41453436017,-2441.86882675]  [0,0,0,1] 
frames/TS_43_040_60.0.mrc           10           41    59.996200    85.000000     -2.50000   120.000000 MotionCorr/job002/frames/TS_43_040_60_0_PS.mrc MotionCorr/job002/frames/TS_43_040_60_0.mrc MotionCorr/job002/frames/TS_43_040_60_0.star     5.204267     0.000000     5.204267 CtfFind/job003/frames/TS_43_040_60_0_PS.ctf:mrc 25545.878906 25269.183594   276.695312    54.694542     0.014533    13.272177     0.000000    54.490000    85.336419    -28.47853    -80.07146 [0.0472256139515,-0.996689260006,0.066183440158,3633.55692521] [0.578921971593,0.0813050195575,0.81131920704,-677.744982491] [-0.814014196396,0,0.58084499836,756.760895252]  [0,0,0,1] 
 
