
# version 30001

data_220728_TS_03

loop_ 
_rlnMicrographMovieName #1 
_rlnTomoTiltMovieFrameCount #2 
_rlnTomoTiltMovieIndex #3 
_rlnTomoNominalStageTiltAngle #4 
_rlnTomoNominalTiltAxisAngle #5 
_rlnTomoNominalDefocus #6 
_rlnMicrographPreExposure #7 
_rlnCtfPowerSpectrum #8 
_rlnMicrographName #9 
_rlnMicrographMetadata #10 
_rlnAccumMotionTotal #11 
_rlnAccumMotionEarly #12 
_rlnAccumMotionLate #13 
_rlnCtfImage #14 
_rlnDefocusU #15 
_rlnDefocusV #16 
_rlnCtfAstigmatism #17 
_rlnDefocusAngle #18 
_rlnCtfFigureOfMerit #19 
_rlnCtfMaxResolution #20 
_rlnTomoXTilt #21 
_rlnTomoYTilt #22 
_rlnTomoZRot #23 
_rlnTomoXShiftAngst #24 
_rlnTomoYShiftAngst #25 
_rlnTomoProjX #26 
_rlnTomoProjY #27 
_rlnTomoProjZ #28 
_rlnTomoProjW #29 
frames/TS_03_000_0.0.mrc            8            1     0.001500    85.000000     -1.50000     0.000000 MotionCorr/job002/frames/TS_03_000_0_0_PS.mrc MotionCorr/job002/frames/TS_03_000_0_0.mrc MotionCorr/job002/frames/TS_03_000_0_0.star     4.072549     2.385954     1.686594 CtfFind/job003/frames/TS_03_000_0_0_PS.ctf:mrc 14914.129883 14383.688477   530.441406    27.682924     0.044489     5.470974     0.000000     0.830000    85.270709    25.050669    31.501607 [0.0824394310343,-0.99659538269,0.00119432030971,3700.07647396] [0.996490835674,0.0824480801821,0.0144364077791,-237.197919677] [-0.014485726133,0,0.999895095825,-1470.87119147]  [0,0,0,1] 
frames/TS_03_001_3.0.mrc            8            2     3.001130    85.000000     -1.50000     3.000000 MotionCorr/job002/frames/TS_03_001_3_0_PS.mrc MotionCorr/job002/frames/TS_03_001_3_0.mrc MotionCorr/job002/frames/TS_03_001_3_0.star     2.939664     0.000000     2.939664 CtfFind/job003/frames/TS_03_001_3_0_PS.ctf:mrc 14888.939453 14275.755859   613.183594    44.326084     0.036876     4.875494     0.000000     3.830000    85.276246    25.516698    48.573868 [0.0821678135052,-0.996603310108,0.00550079460981,3694.52105907] [0.994377510188,0.0823517367244,0.0665694535953,-298.332031255] [-0.0667963400483,0,0.99776661396,-1363.05724084]  [0,0,0,1] 
frames/TS_03_002_-3.0.mrc            8            3     -2.99863    85.000000     -1.50000     6.000000 MotionCorr/job002/frames/TS_03_002_-3_0_PS.mrc MotionCorr/job002/frames/TS_03_002_-3_0.mrc MotionCorr/job002/frames/TS_03_002_-3_0.star     1.828098     0.000000     1.828098 CtfFind/job003/frames/TS_03_002_-3_0_PS.ctf:mrc 14938.585938 14113.214844   825.371094    57.001820     0.044192     4.977066     0.000000     -2.17000    85.265201    23.917949    18.702685 [0.0824846425724,-0.996587455273,-0.00312548862997,3705.6108576] [0.995872798939,0.0825438350439,-0.0377353773128,-167.376361256] [0.0378645919263,0,0.999282896519,-1574.65352863]  [0,0,0,1] 
frames/TS_03_003_-6.0.mrc            8            4     -5.99827    85.000000     -1.50000     9.000000 MotionCorr/job002/frames/TS_03_003_-6_0_PS.mrc MotionCorr/job002/frames/TS_03_003_-6_0.mrc MotionCorr/job002/frames/TS_03_003_-6_0.star     2.192116     0.000000     2.192116 CtfFind/job003/frames/TS_03_003_-6_0_PS.ctf:mrc 14571.132812 14428.931641   142.201172    35.857037     0.049529     4.942742     0.000000     -5.17000    85.259659    24.425823    36.630321 [0.0823039845674,-0.99657946825,-0.00744679984004,3712.81436935] [0.992525128423,0.0826401859522,-0.0898028935831,-69.4927172639] [0.0901111215353,0,0.995931744576,-1674.11985993]  [0,0,0,1] 
frames/TS_03_004_6.0.mrc            8            5     6.000760    85.000000     -1.50000    12.000000 MotionCorr/job002/frames/TS_03_004_6_0_PS.mrc MotionCorr/job002/frames/TS_03_004_6_0.mrc MotionCorr/job002/frames/TS_03_004_6_0.star     2.495123     0.000000     2.495123 CtfFind/job003/frames/TS_03_004_6_0_PS.ctf:mrc 14835.501953 14095.202148   740.299805    40.851852     0.046043     4.875494     0.000000     6.830000    85.281805    21.100294    25.109168 [0.0816712931892,-0.996611297131,0.00978208588911,3685.83672646] [0.989538697347,0.0822550281882,0.118520867615,-383.769368789] [-0.118923865259,0,0.992903351784,-1251.50729716]  [0,0,0,1] 
frames/TS_03_005_9.0.mrc            8            6     9.001400    85.000000     -1.50000    15.000000 MotionCorr/job002/frames/TS_03_005_9_0_PS.mrc MotionCorr/job002/frames/TS_03_005_9_0.mrc MotionCorr/job002/frames/TS_03_005_9_0.star     1.624349     0.000000     1.624349 CtfFind/job003/frames/TS_03_005_9_0_PS.ctf:mrc 14736.951172 14203.156250   533.794922    51.711544     0.038881     7.166976     0.000000     9.830000    85.287439    16.815199    36.275181 [0.0809508334374,-0.996619403362,0.0140262909904,3677.75340633] [0.981987695785,0.0821570083499,0.170148281187,-437.641325605] [-0.170725435019,0,0.985318660736,-1136.52712107]  [0,0,0,1] 
frames/TS_03_006_-9.0.mrc            8            7     -8.99890    85.000000     -1.50000    18.000000 MotionCorr/job002/frames/TS_03_006_-9_0_PS.mrc MotionCorr/job002/frames/TS_03_006_-9_0.mrc MotionCorr/job002/frames/TS_03_006_-9_0.star     2.743255     0.000000     2.743255 CtfFind/job003/frames/TS_03_006_-9_0_PS.ctf:mrc 14946.252930 14307.632812   638.620117    29.519787     0.034311     7.388635     0.000000     -8.17000    85.254065    28.113606    33.718441 [0.0818977604705,-0.996571362019,-0.0117578783834,3722.808914] [0.986456919596,0.0827374830842,-0.141623414663,18.0229395972] [0.142110660672,0,0.989850759506,-1768.9974606]  [0,0,0,1] 
frames/TS_03_007_-12.0.mrc            8            8    -11.99800    85.000000     -1.50000    21.000000 MotionCorr/job002/frames/TS_03_007_-12_0_PS.mrc MotionCorr/job002/frames/TS_03_007_-12_0.mrc MotionCorr/job002/frames/TS_03_007_-12_0.star     2.320620     0.000000     2.320620 CtfFind/job003/frames/TS_03_007_-12_0_PS.ctf:mrc 14907.075195 14341.725586   565.349609    44.152664     0.026412     6.575207     0.000000    -11.17000    85.248391    23.966677    38.088027 [0.081267023664,-0.996563196182,-0.0160470885914,3727.416072] [0.977685050237,0.0828362107277,-0.193054918321,115.753208884] [0.193720698357,0,0.981056749821,-1859.02652144]  [0,0,0,1] 
frames/TS_03_008_12.0.mrc            8            9    12.000500    85.000000     -1.50000    24.000000 MotionCorr/job002/frames/TS_03_008_12_0_PS.mrc MotionCorr/job002/frames/TS_03_008_12_0.mrc MotionCorr/job002/frames/TS_03_008_12_0.star     3.111274     0.000000     3.111274 CtfFind/job003/frames/TS_03_008_12_0_PS.ctf:mrc 14803.520508 14328.386719   475.133789    88.721184     0.034305     7.388635     0.000000    12.830000    85.293177    15.947579    10.104608 [0.08000851113,-0.996627628803,0.018221547775,3672.71893517] [0.97174504967,0.0820572152734,0.221310190598,-513.084920968] [-0.222059056163,0,0.975033223629,-1018.43172312]  [0,0,0,1] 
frames/TS_03_009_15.0.mrc            8           10    15.000700    85.000000     -1.50000    27.000000 MotionCorr/job002/frames/TS_03_009_15_0_PS.mrc MotionCorr/job002/frames/TS_03_009_15_0.mrc MotionCorr/job002/frames/TS_03_009_15_0.star     2.299918     0.000000     2.299918 CtfFind/job003/frames/TS_03_009_15_0_PS.ctf:mrc 15232.565430 14329.512695   903.052734    57.914169     0.025504     6.456735     0.000000    15.830000    85.299058    19.526299    21.237557 [0.0788468025243,-0.996636033058,0.0223559925764,3671.50839739] [0.958838903583,0.0819549188018,0.271866388036,-554.65570312] [-0.272784024477,0,0.962075293064,-897.544890642]  [0,0,0,1] 
frames/TS_03_010_-15.0.mrc            8           11    -14.99920    85.000000     -1.50000    30.000000 MotionCorr/job002/frames/TS_03_010_-15_0_PS.mrc MotionCorr/job002/frames/TS_03_010_-15_0.mrc MotionCorr/job002/frames/TS_03_010_-15_0.star     3.153425     0.000000     3.153425 CtfFind/job003/frames/TS_03_010_-15_0_PS.ctf:mrc 15465.258789 14519.266602   945.992188    14.212569     0.020503     8.333693     0.000000    -14.17000    85.242601    28.381992    48.429821 [0.0804134835634,-0.996554791927,-0.020302944472,3738.76073121] [0.966233293529,0.0829369500279,-0.243956361995,222.467997361] [0.244799748063,0,0.969573676586,-1943.96001101]  [0,0,0,1] 
frames/TS_03_011_-18.0.mrc            8           12    -17.99880    85.000000     -1.50000    33.000000 MotionCorr/job002/frames/TS_03_011_-18_0_PS.mrc MotionCorr/job002/frames/TS_03_011_-18_0.mrc MotionCorr/job002/frames/TS_03_011_-18_0.star     2.584567     0.000000     2.584567 CtfFind/job003/frames/TS_03_011_-18_0_PS.ctf:mrc 15083.046875 14791.126953   291.919922    74.976234     0.030921     9.555968     0.000000    -17.17000    85.236650    23.477673    24.398914 [0.0793395669962,-0.996546208858,-0.0245141831376,3743.57542732] [0.952133204384,0.0830404236913,-0.294188242101,308.008376631] [0.295207828283,0,0.95543307066,-2023.56526256]  [0,0,0,1] 
frames/TS_03_012_18.0.mrc            8           13    18.000300    85.000000     -1.50000    36.000000 MotionCorr/job002/frames/TS_03_012_18_0_PS.mrc MotionCorr/job002/frames/TS_03_012_18_0.mrc MotionCorr/job002/frames/TS_03_012_18_0.star     2.638859     0.000000     2.638859 CtfFind/job003/frames/TS_03_012_18_0_PS.ctf:mrc 15417.910156 14613.988281   803.921875    11.507024     0.027604     8.634910     0.000000    18.830000    85.305106    14.288120     0.400565 [0.077469095557,-0.996644675732,0.0264179039098,3664.30809708] [0.943304644776,0.0818496569991,0.321678358115,-613.529425908] [-0.322761327028,0,0.94648039341,-774.197936058]  [0,0,0,1] 
frames/TS_03_013_21.0.mrc            8           14    21.000900    85.000000     -1.50000    39.000000 MotionCorr/job002/frames/TS_03_013_21_0_PS.mrc MotionCorr/job002/frames/TS_03_013_21_0.mrc MotionCorr/job002/frames/TS_03_013_21_0.star     2.697414     0.000000     2.697414 CtfFind/job003/frames/TS_03_013_21_0_PS.ctf:mrc 14731.364258 13334.033203  1397.331055    38.069611     0.023252     8.532114     0.000000    21.830000    85.311383    16.023529     7.276274 [0.0758789628178,-0.996653676033,0.030395515983,3662.8254332] [0.9251848979,0.0817404687405,0.370609603862,-645.375306483] [-0.371853947639,0,0.928291261196,-648.728996515]  [0,0,0,1] 
frames/TS_03_014_-21.0.mrc            8           15    -20.99890    85.000000     -1.50000    42.000000 MotionCorr/job002/frames/TS_03_014_-21_0_PS.mrc MotionCorr/job002/frames/TS_03_014_-21_0.mrc MotionCorr/job002/frames/TS_03_014_-21_0.star     2.425868     0.000000     2.425868 CtfFind/job003/frames/TS_03_014_-21_0_PS.ctf:mrc 14973.034180 14354.302734   618.731445    -53.28982     0.025407     7.875797     0.000000    -20.17000    85.230504    28.393507    41.376611 [0.0780481068628,-0.996537268162,-0.028669723685,3756.01513553] [0.93542329984,0.0831472203135,-0.343612787202,427.927481977] [0.34480676055,0,0.93867367506,-2097.62403369]  [0,0,0,1] 
frames/TS_03_015_-24.0.mrc            8           16    -23.99860    85.000000     -1.50000    45.000000 MotionCorr/job002/frames/TS_03_015_-24_0_PS.mrc MotionCorr/job002/frames/TS_03_015_-24_0.mrc MotionCorr/job002/frames/TS_03_015_-24_0.star     2.733519     0.000000     2.733519 CtfFind/job003/frames/TS_03_015_-24_0_PS.ctf:mrc 14915.612305 14417.006836   498.605469    -65.56125     0.024944     6.178427     0.000000    -23.17000    85.224116    19.353113    11.040066 [0.0765429144721,-0.996527969837,-0.0327589051774,3758.44410776] [0.91614952314,0.0832584127784,-0.392094494492,516.503696567] [0.393460601568,0,0.919341504574,-2165.93346]  [0,0,0,1] 
frames/TS_03_016_24.0.mrc            8           17    24.000600    85.000000     -1.50000    48.000000 MotionCorr/job002/frames/TS_03_016_24_0_PS.mrc MotionCorr/job002/frames/TS_03_016_24_0.mrc MotionCorr/job002/frames/TS_03_016_24_0.star     2.618682     0.000000     2.618682 CtfFind/job003/frames/TS_03_016_24_0_PS.ctf:mrc 15418.486328 14829.241211   589.245117    60.995148     0.019254     8.052782     0.000000    24.830000    85.317920    14.182766     3.153929 [0.074081109796,-0.996662974358,0.0342773596269,3659.25344228] [0.904529182503,0.0816268846393,0.418526020561,-678.764921422] [-0.419927328825,0,0.907557725906,-521.48193121]  [0,0,0,1] 
frames/TS_03_017_27.0.mrc            8           18    27.000700    85.000000     -1.50000    51.000000 MotionCorr/job002/frames/TS_03_017_27_0_PS.mrc MotionCorr/job002/frames/TS_03_017_27_0.mrc MotionCorr/job002/frames/TS_03_017_27_0.star     3.650497     0.000000     3.650497 CtfFind/job003/frames/TS_03_017_27_0_PS.ctf:mrc 14934.773438 13863.186523  1071.586914    32.955189     0.025971     7.963306     0.000000    27.830000    85.324795    19.329741    21.327991 [0.0720797370255,-0.996672749519,0.0380515800028,3661.42698165] [0.881394240827,0.0815071240067,0.465296418284,-688.94884524] [-0.46684974432,0,0.884336650372,-392.805486917]  [0,0,0,1] 
frames/TS_03_018_-27.0.mrc            8           19    -26.99870    85.000000     -1.50000    54.000000 MotionCorr/job002/frames/TS_03_018_-27_0_PS.mrc MotionCorr/job002/frames/TS_03_018_-27_0.mrc MotionCorr/job002/frames/TS_03_018_-27_0.star     2.949335     0.000000     2.949335 CtfFind/job003/frames/TS_03_018_-27_0_PS.ctf:mrc 27004.519531 26748.279297   256.240234    38.878880     0.020415    25.000000     0.000000    -26.17000    85.217430    27.908004    26.856471 [0.0748279265224,-0.99651825428,-0.0367712502247,3774.21012641] [0.894364598544,0.0833747163415,-0.43950041079,642.665668637] [0.441035985947,0,0.89748942852,-2228.30611467]  [0,0,0,1] 
frames/TS_03_019_-30.0.mrc            8           20    -29.99930    85.000000     -1.50000    57.000000 MotionCorr/job002/frames/TS_03_019_-30_0_PS.mrc MotionCorr/job002/frames/TS_03_019_-30_0.mrc MotionCorr/job002/frames/TS_03_019_-30_0.star     2.647431     0.000000     2.647431 CtfFind/job003/frames/TS_03_019_-30_0_PS.ctf:mrc 14968.011719 13597.093750  1370.917969    55.437256     0.017283     9.072121     0.000000    -29.17000    85.210392    22.585269     -3.48557 [0.0729077550605,-0.996508002281,-0.0406966829332,3779.97534773] [0.870128275651,0.0834970697761,-0.485700520007,737.718182489] [0.487402528524,0,0.873177409172,-2284.57117081]  [0,0,0,1] 
frames/TS_03_020_30.0.mrc            8           21    30.000800    85.000000     -1.50000    60.000000 MotionCorr/job002/frames/TS_03_020_30_0_PS.mrc MotionCorr/job002/frames/TS_03_020_30_0.mrc MotionCorr/job002/frames/TS_03_020_30_0.star     2.842580     0.000000     2.842580 CtfFind/job003/frames/TS_03_020_30_0_PS.ctf:mrc 15369.424805 15229.916016   139.508789    35.919548     0.008023     9.954133     0.000000    30.830000    85.332056     4.361852    15.681033 [0.06988113793,-0.996683061123,0.0417071249437,3649.27416045] [0.855843464494,0.0813809409738,0.510792631077,-710.022177551] [-0.512492537498,0,0.858691692352,-263.052463531]  [0,0,0,1] 
frames/TS_03_021_33.0.mrc            8           22    33.001000    85.000000     -1.50000    63.000000 MotionCorr/job002/frames/TS_03_021_33_0_PS.mrc MotionCorr/job002/frames/TS_03_021_33_0.mrc MotionCorr/job002/frames/TS_03_021_33_0.star     3.391163     0.000000     3.391163 CtfFind/job003/frames/TS_03_021_33_0_PS.ctf:mrc 13863.677734 13138.734375   724.943359    -56.13203     0.024213    10.696979     0.000000    33.830000    85.339788    15.428497    48.913524 [0.0674907578978,-0.996694028378,0.0452323217621,3656.98657461] [0.827946818417,0.0812463238835,0.554890151764,-695.489272246] [-0.556730687618,0,0.83069306612,-132.578223944]  [0,0,0,1] 
frames/TS_03_022_-33.0.mrc            8           23    -32.99900    85.000000     -1.50000    66.000000 MotionCorr/job002/frames/TS_03_022_-33_0_PS.mrc MotionCorr/job002/frames/TS_03_022_-33_0.mrc MotionCorr/job002/frames/TS_03_022_-33_0.star     2.994518     0.000000     2.994518 CtfFind/job003/frames/TS_03_022_-33_0_PS.ctf:mrc 24147.820312 23835.798828   312.021484    32.911057     0.017379    25.000000     0.000000    -32.17000    85.202941    31.222636     8.005040 [0.070787643899,-0.996497154236,-0.0445256079294,3796.33531109] [0.843507023366,0.0836266726255,-0.530568061591,866.514359662] [0.532433092594,0,0.846472084522,-2334.57431197]  [0,0,0,1] 
frames/TS_03_023_-36.0.mrc            8           24    -35.99860    85.000000     -1.50000    69.000000 MotionCorr/job002/frames/TS_03_023_-36_0_PS.mrc MotionCorr/job002/frames/TS_03_023_-36_0.mrc MotionCorr/job002/frames/TS_03_023_-36_0.star     3.724482     0.000000     3.724482 CtfFind/job003/frames/TS_03_023_-36_0_PS.ctf:mrc 14859.126953 14157.579102   701.547852    -10.37815     0.024116     8.634910     0.000000    -35.17000    85.194971    28.018215    -17.36869 [0.068473668354,-0.99648553133,-0.0482491784108,3804.1517269] [0.814573758437,0.0837653055787,-0.573979977185,970.426141449] [0.576004326344,0,0.817446649075,-2378.1786263]  [0,0,0,1] 
frames/TS_03_024_36.0.mrc            8           25    36.000600    85.000000     -1.50000    72.000000 MotionCorr/job002/frames/TS_03_024_36_0_PS.mrc MotionCorr/job002/frames/TS_03_024_36_0.mrc MotionCorr/job002/frames/TS_03_024_36_0.star     3.601591     0.000000     3.601591 CtfFind/job003/frames/TS_03_024_36_0_PS.ctf:mrc 15770.515625 15489.250977   281.264648     1.652692     0.012083     5.643288     0.000000    36.830000    85.348071    12.737524    45.727675 [0.0649157237451,-0.996705770493,0.0486161996043,3655.09099705] [0.797780842779,0.0811023190618,0.597468077924,-701.096088716] [-0.599442780018,0,0.800417602062,-1.74084305763]  [0,0,0,1] 
frames/TS_03_025_39.0.mrc            8           26    39.000700    85.000000     -1.50000    75.000000 MotionCorr/job002/frames/TS_03_025_39_0_PS.mrc MotionCorr/job002/frames/TS_03_025_39_0.mrc MotionCorr/job002/frames/TS_03_025_39_0.star     2.426794     0.000000     2.426794 CtfFind/job003/frames/TS_03_025_39_0_PS.ctf:mrc 34171.070312 34008.503906   162.566406    88.753265     0.017800    25.000000     0.000000    39.830000    85.357039    24.095795    78.354867 [0.0621625806519,-0.996718466282,0.0518470828834,3664.18988397] [0.765428162294,0.0809463188052,0.638410068494,-673.323422716] [-0.640511929989,0,0.767948210239,129.101544619]  [0,0,0,1] 
frames/TS_03_026_-39.0.mrc            8           27    -38.99870    85.000000     -1.50000    78.000000 MotionCorr/job002/frames/TS_03_026_-39_0_PS.mrc MotionCorr/job002/frames/TS_03_026_-39_0.mrc MotionCorr/job002/frames/TS_03_026_-39_0.star     3.191756     0.000000     3.191756 CtfFind/job003/frames/TS_03_026_-39_0_PS.ctf:mrc 13720.274414 13303.947266   416.327148    53.319641     0.018704     9.188430     0.000000    -38.17000    85.186393    35.599632     -7.31828 [0.0659719559695,-0.99647295475,-0.0518588956047,3820.16043875] [0.78340772082,0.0839145034552,-0.615817109147,1102.6602648] [0.617996811867,0,0.786180615425,-2415.26454687]  [0,0,0,1] 
frames/TS_03_027_-42.0.mrc            8           28    -41.99940    85.000000     -1.50000    81.000000 MotionCorr/job002/frames/TS_03_027_-42_0_PS.mrc MotionCorr/job002/frames/TS_03_027_-42_0.mrc MotionCorr/job002/frames/TS_03_027_-42_0.star     3.235657     0.000000     3.235657 CtfFind/job003/frames/TS_03_027_-42_0_PS.ctf:mrc 14509.628906 14406.690430   102.938477    52.597168     0.015651     5.193461     0.000000    -41.17000    85.177078    30.772285    -34.94625 [0.0632894290222,-0.996459305286,-0.0553471881569,3827.15481995] [0.750094462174,0.0840765312314,-0.655964510579,1208.71867091] [0.658295333385,0,0.752759754658,-2445.73029876]  [0,0,0,1] 
frames/TS_03_028_42.0.mrc            8           29    42.000900    85.000000     -1.50000    84.000000 MotionCorr/job002/frames/TS_03_028_42_0_PS.mrc MotionCorr/job002/frames/TS_03_028_42_0.mrc MotionCorr/job002/frames/TS_03_028_42_0.star     4.464974     0.000000     4.464974 CtfFind/job003/frames/TS_03_028_42_0_PS.ctf:mrc 31264.658203 30896.597656   368.060547    15.661958     0.019424    25.000000     0.000000    42.830000    85.366823     6.443123    69.293044 [0.0592391427887,-0.996732294559,0.0549136940415,3652.38844618] [0.730977549387,0.0807761698961,0.677603955908,-669.585191687] [-0.679825425148,0,0.733373999596,259.589850903]  [0,0,0,1] 
frames/TS_03_029_45.0.mrc            8           30    45.000500    85.000000     -1.50000    87.000000 MotionCorr/job002/frames/TS_03_029_45_0_PS.mrc MotionCorr/job002/frames/TS_03_029_45_0.mrc MotionCorr/job002/frames/TS_03_029_45_0.star     4.053898     0.000000     4.053898 CtfFind/job003/frames/TS_03_029_45_0_PS.ctf:mrc 31814.515625 31653.380859   161.134766    -17.63953     0.018370     9.954133     0.000000    45.830000    85.377618    25.595171    97.826059 [0.056153098754,-0.996747493744,0.0578040258632,3668.44213711] [0.694523309701,0.080588310957,0.714942616656,-631.173418893] [-0.717275559902,0,0.696789622307,389.366686344]  [0,0,0,1] 
frames/TS_03_030_-45.0.mrc            8           31    -44.99900    85.000000     -1.50000    90.000000 MotionCorr/job002/frames/TS_03_030_-45_0_PS.mrc MotionCorr/job002/frames/TS_03_030_-45_0.mrc MotionCorr/job002/frames/TS_03_030_-45_0.star     4.349029     0.000000     4.349029 CtfFind/job003/frames/TS_03_030_-45_0_PS.ctf:mrc 12430.739258 11877.125977   553.613281    40.834034     0.022664     4.977066     0.000000    -44.17000    85.166872    36.185462    -24.27879 [0.0604333325929,-0.996444284916,-0.0587073054542,3841.88690875] [0.714725132374,0.0842539966106,-0.694311977544,1344.52542242] [0.696789562702,0,0.717275559902,-2469.49246526]  [0,0,0,1] 
frames/TS_03_031_-48.0.mrc            8           32    -47.99910    85.000000     -1.50000    93.000000 MotionCorr/job002/frames/TS_03_031_-48_0_PS.mrc MotionCorr/job002/frames/TS_03_031_-48_0.mrc MotionCorr/job002/frames/TS_03_031_-48_0.star     5.279494     0.000000     5.279494 CtfFind/job003/frames/TS_03_031_-48_0_PS.ctf:mrc 12200.145508 11962.667969   237.477539    83.655251     0.016932     9.685102     0.000000    -47.17000    85.155561    27.931513    -57.35480 [0.0574117376813,-0.99642765522,-0.0619339526436,3846.62277367] [0.677396854339,0.0844507068396,-0.730754134816,1448.95104579] [0.733373999596,0,0.679825425148,-2486.48613691]  [0,0,0,1] 
frames/TS_03_032_48.0.mrc            8           33    47.999600    85.000000     -1.50000    96.000000 MotionCorr/job002/frames/TS_03_032_48_0_PS.mrc MotionCorr/job002/frames/TS_03_032_48_0.mrc MotionCorr/job002/frames/TS_03_032_48_0.star     3.918000     0.000000     3.918000 CtfFind/job003/frames/TS_03_032_48_0_PS.ctf:mrc 18168.578125 17709.113281   459.464844    82.572098     0.019627     4.842551     0.000000    48.830000    85.389632     5.695347    90.495583 [0.0529133227629,-0.996764361858,0.0605062972207,3656.16140792] [0.656165387308,0.0803792998195,0.750324037072,-612.541664678] [-0.752759695053,0,0.65829539299,518.076300621]  [0,0,0,1] 
frames/TS_03_033_51.0.mrc            8           34    50.999800    85.000000     -1.50000    99.000000 MotionCorr/job002/frames/TS_03_033_51_0_PS.mrc MotionCorr/job002/frames/TS_03_033_51_0.mrc MotionCorr/job002/frames/TS_03_033_51_0.star     3.383501     0.000000     3.383501 CtfFind/job003/frames/TS_03_033_51_0_PS.ctf:mrc 14355.993164 13632.543945   723.449219    -79.00206     0.019553     4.396918     0.000000    51.830000    85.403180    20.012195   118.320531 [0.0495284620989,-0.996783316135,0.0630073101775,3669.82259095] [0.616008911494,0.0801435559988,0.783651720925,-561.137678594] [-0.786180615425,0,0.617996811867,645.36601305]  [0,0,0,1] 
frames/TS_03_034_-51.0.mrc            8           35    -50.99930    85.000000     -1.50000   102.000000 MotionCorr/job002/frames/TS_03_034_-51_0_PS.mrc MotionCorr/job002/frames/TS_03_034_-51_0.mrc MotionCorr/job002/frames/TS_03_034_-51_0.star     8.899087     0.000000     8.899087 CtfFind/job003/frames/TS_03_034_-51_0_PS.ctf:mrc 12389.518555 12123.637695   265.880859    -44.72475     0.018134    25.000000     0.000000    -50.17000    85.142905    25.257149    -51.27907 [0.0542326603662,-0.996408998966,-0.06502279273,3855.59586555] [0.638211850986,0.084670804441,-0.765190507423,1583.03595695] [0.767948210239,0,0.640511929989,-2496.66431546]  [0,0,0,1] 
frames/TS_03_035_-54.0.mrc            8           36    -53.99890    85.000000     -1.50000   105.000000 MotionCorr/job002/frames/TS_03_035_-54_0_PS.mrc MotionCorr/job002/frames/TS_03_035_-54_0.mrc MotionCorr/job002/frames/TS_03_035_-54_0.star    39.491476     0.000000    39.491476 CtfFind/job003/frames/TS_03_035_-54_0_PS.ctf:mrc 33019.132812 32598.650391   420.482422    -78.07917     0.009690    25.000000     0.000000    -53.17000    85.128547    -52.60497   -107.24109 [0.0509049741812,-0.996387720108,-0.0679718476458,3808.95662184] [0.597277484307,0.0849204808474,-0.797526269653,1671.45562751] [0.800417602062,0,0.599442839622,-2499.99946356]  [0,0,0,1] 
frames/TS_03_036_54.0.mrc            8           37    53.996900    85.000000     -1.50000   108.000000 MotionCorr/job002/frames/TS_03_036_54_0_PS.mrc MotionCorr/job002/frames/TS_03_036_54_0.mrc MotionCorr/job002/frames/TS_03_036_54_0.star     3.349506     0.000000     3.349506 CtfFind/job003/frames/TS_03_036_54_0_PS.ctf:mrc 11925.934570 11807.001953   118.932617    -11.95214     0.015471     5.156098     0.000000    54.830000    85.418659     0.143006   112.980003 [0.0460080064299,-0.996804952621,0.0652930698029,3658.76021805] [0.574163965231,0.0798744112253,0.814834868301,-527.640164253] [-0.817446649075,0,0.576004326344,770.886808634]  [0,0,0,1] 
frames/TS_03_037_57.0.mrc            8           38    56.996000    85.000000     -1.50000   111.000000 MotionCorr/job002/frames/TS_03_037_57_0_PS.mrc MotionCorr/job002/frames/TS_03_037_57_0.mrc MotionCorr/job002/frames/TS_03_037_57_0.star     3.059971     0.000000     3.059971 CtfFind/job003/frames/TS_03_037_57_0_PS.ctf:mrc 20146.216797 20037.492188   108.724609    -71.66944     0.009113    25.000000     0.000000    57.830000    85.436639    20.880266   149.756904 [0.0423611922914,-0.996829986572,0.0673466154536,3678.38452909] [0.530745272541,0.0795615315437,0.843788756648,-456.365703142] [-0.846472084522,0,0.532433092594,894.294530153]  [0,0,0,1] 
frames/TS_03_038_-57.0.mrc            8           39    -56.99900    85.000000     -1.50000   114.000000 MotionCorr/job002/frames/TS_03_038_-57_0_PS.mrc MotionCorr/job002/frames/TS_03_038_-57_0.mrc MotionCorr/job002/frames/TS_03_038_-57_0.star    96.106813     0.000000    96.106813 CtfFind/job003/frames/TS_03_038_-57_0_PS.ctf:mrc 16260.726562 15735.428711   525.297852    34.200523     0.018008    25.000000     0.000000    -56.17000    85.112037   -228.32871   -127.45206 [0.047437667154,-0.996363222599,-0.0707813347713,3689.89073823] [0.554705982035,0.0852075666189,-0.82767202035,1786.27199766] [0.83069306612,0,0.556730687618,-2496.48216367]  [0,0,0,1] 
frames/TS_03_039_-60.0.mrc            8           40    -59.99910    85.000000     -1.50000   117.000000 MotionCorr/job002/frames/TS_03_039_-60_0_PS.mrc MotionCorr/job002/frames/TS_03_039_-60_0.mrc MotionCorr/job002/frames/TS_03_039_-60_0.star     6.850198     0.000000     6.850198 CtfFind/job003/frames/TS_03_039_-60_0_PS.ctf:mrc 28289.623047 28072.556641   217.066406    -88.60394     0.020982    25.000000     0.000000    -59.17000    85.112037   -392.61836   395.000207 [0.0436682471094,-0.996363222599,-0.0731670245025,3579.3120744] [0.510628775608,0.0852075666189,-0.855568762423,2303.27320511] [0.858691632748,0,0.512492597103,-2486.12216115]  [0,0,0,1] 
frames/TS_03_040_60.0.mrc            8           41    59.998100    85.000000     -1.50000   120.000000 MotionCorr/job002/frames/TS_03_040_60_0_PS.mrc MotionCorr/job002/frames/TS_03_040_60_0.mrc MotionCorr/job002/frames/TS_03_040_60_0.star     4.069950     0.000000     4.069950 CtfFind/job003/frames/TS_03_040_60_0_PS.ctf:mrc 30377.662109 30167.859375   209.802734     9.364837     0.018052    13.030865     0.000000    60.830000    85.457877     1.662165   134.985802 [0.038598361735,-0.996859371662,0.0691486308044,3669.03030698] [0.485871778331,0.0791919603944,0.870435083457,-416.790619674] [-0.873177409172,0,0.487402528524,1015.25102556]  [0,0,0,1] 
 
