
# version 30001

data_220728_TS_54

loop_ 
_rlnMicrographMovieName #1 
_rlnTomoTiltMovieFrameCount #2 
_rlnTomoTiltMovieIndex #3 
_rlnTomoNominalStageTiltAngle #4 
_rlnTomoNominalTiltAxisAngle #5 
_rlnTomoNominalDefocus #6 
_rlnMicrographPreExposure #7 
_rlnCtfPowerSpectrum #8 
_rlnMicrographName #9 
_rlnMicrographMetadata #10 
_rlnAccumMotionTotal #11 
_rlnAccumMotionEarly #12 
_rlnAccumMotionLate #13 
_rlnCtfImage #14 
_rlnDefocusU #15 
_rlnDefocusV #16 
_rlnCtfAstigmatism #17 
_rlnDefocusAngle #18 
_rlnCtfFigureOfMerit #19 
_rlnCtfMaxResolution #20 
_rlnTomoXTilt #21 
_rlnTomoYTilt #22 
_rlnTomoZRot #23 
_rlnTomoXShiftAngst #24 
_rlnTomoYShiftAngst #25 
_rlnTomoProjX #26 
_rlnTomoProjY #27 
_rlnTomoProjZ #28 
_rlnTomoProjW #29 
frames/TS_54_000_-0.0.mrc           10            1 -5.00000e-04    85.000000     -1.50000     0.000000 MotionCorr/job002/frames/TS_54_000_-0_0_PS.mrc MotionCorr/job002/frames/TS_54_000_-0_0.mrc MotionCorr/job002/frames/TS_54_000_-0_0.star     3.897464     2.138782     1.758682 CtfFind/job003/frames/TS_54_000_-0_0_PS.ctf:mrc 15526.728516 15218.569336   308.159180    62.859501     0.060714     5.119268     0.000000    -28.72000    85.080386     -7.41519    -83.03108 [0.0752079909241,-0.99631601572,-0.0412093002132,3753.53726436] [0.873747682125,0.0857580825686,-0.478759372519,656.623023466] [0.480529636145,0,0.876978456974,-2276.52695775]  [0,0,0,1] 
frames/TS_54_001_3.0.mrc           10            2     2.999630    85.000000     -1.50000     3.000000 MotionCorr/job002/frames/TS_54_001_3_0_PS.mrc MotionCorr/job002/frames/TS_54_001_3_0.mrc MotionCorr/job002/frames/TS_54_001_3_0.star     2.810257     0.000000     2.810257 CtfFind/job003/frames/TS_54_001_3_0_PS.ctf:mrc 15568.182617 15115.099609   453.083008    22.470112     0.066771     5.348489     0.000000    -25.72000    85.090547    -15.67105    -83.42493 [0.0771024247116,-0.996331214905,-0.0371400437403,3737.55946081] [0.897620274359,0.0855813473463,-0.432381424795,539.372650077] [0.433973580599,0,0.900925576687,-2219.33552623]  [0,0,0,1] 
frames/TS_54_002_-3.0.mrc           10            3     -2.99963    85.000000     -1.50000     6.000000 MotionCorr/job002/frames/TS_54_002_-3_0_PS.mrc MotionCorr/job002/frames/TS_54_002_-3_0.mrc MotionCorr/job002/frames/TS_54_002_-3_0.star     3.215832     0.000000     3.215832 CtfFind/job003/frames/TS_54_002_-3_0_PS.ctf:mrc 15424.526367 15147.198242   277.328125    18.844673     0.054267     5.643288     0.000000    -31.72000    85.069637    -17.15141    -80.82801 [0.0731072156425,-0.996299862862,-0.0451871936304,3756.46133822] [0.847480221753,0.0859450250864,-0.523823162211,778.011653341] [0.525768578053,0,0.850627660751,-2327.47864723]  [0,0,0,1] 
frames/TS_54_003_-6.0.mrc           10            4     -5.99876    85.000000     -1.50000     9.000000 MotionCorr/job002/frames/TS_54_003_-6_0_PS.mrc MotionCorr/job002/frames/TS_54_003_-6_0.mrc MotionCorr/job002/frames/TS_54_003_-6_0.star     4.306340     0.000000     4.306340 CtfFind/job003/frames/TS_54_003_-6_0_PS.ctf:mrc 15490.788086 15248.418945   242.369141    -15.77993     0.050047     6.125620     0.000000    -34.72000    85.058176    -12.18819    -63.21416 [0.070805811082,-0.996282696724,-0.049064846065,3770.5227552] [0.818889830264,0.0861441940069,-0.567449236893,913.280500873] [0.569566488266,0,0.821945250034,-2372.05085158]  [0,0,0,1] 
frames/TS_54_004_6.0.mrc           10            5     5.999760    85.000000     -1.50000    12.000000 MotionCorr/job002/frames/TS_54_004_6_0_PS.mrc MotionCorr/job002/frames/TS_54_004_6_0.mrc MotionCorr/job002/frames/TS_54_004_6_0.star     3.078908     0.000000     3.078908 CtfFind/job003/frames/TS_54_004_6_0_PS.ctf:mrc 15615.589844 15018.817383   596.772461    65.115517     0.046566     5.555795     0.000000    -22.72000    85.100197    -14.93875    -85.05411 [0.078785718535,-0.996345579624,-0.0329890963002,3728.53762292] [0.919032486027,0.0854135230184,-0.384816585395,424.329817039] [0.38622802496,0,0.922403335571,-2156.06105328]  [0,0,0,1] 
frames/TS_54_005_9.0.mrc           10            6     8.999400    85.000000     -1.50000    15.000000 MotionCorr/job002/frames/TS_54_005_9_0_PS.mrc MotionCorr/job002/frames/TS_54_005_9_0.mrc MotionCorr/job002/frames/TS_54_005_9_0.star     2.972250     0.000000     2.972250 CtfFind/job003/frames/TS_54_005_9_0_PS.ctf:mrc 15482.269531 15206.675781   275.593750    57.268250     0.055741     5.119268     0.000000    -19.72000    85.109438    -14.36151    -70.45791 [0.080252985947,-0.996359348297,-0.0287663361756,3719.72407193] [0.937925706403,0.0852528214455,-0.336195418273,324.745023564] [0.337423861027,0,0.941352844238,-2086.87698841]  [0,0,0,1] 
frames/TS_54_006_-9.0.mrc           10            7     -8.99940    85.000000     -1.50000    18.000000 MotionCorr/job002/frames/TS_54_006_-9_0_PS.mrc MotionCorr/job002/frames/TS_54_006_-9_0.mrc MotionCorr/job002/frames/TS_54_006_-9_0.star     4.224320     0.000000     4.224320 CtfFind/job003/frames/TS_54_006_-9_0_PS.ctf:mrc 15685.675781 15202.835938   482.839844    20.096075     0.043627     5.193461     0.000000    -37.72000    85.045834    -13.44447    -88.94349 [0.0683106767216,-0.996264100075,-0.052834588269,3780.19985948] [0.788054887881,0.0863588005304,-0.609517538587,1018.56486365] [0.611803174019,0,0.791010022163,-2410.12138128]  [0,0,0,1] 
frames/TS_54_007_-12.0.mrc           10            8    -11.99850    85.000000     -1.50000    21.000000 MotionCorr/job002/frames/TS_54_007_-12_0_PS.mrc MotionCorr/job002/frames/TS_54_007_-12_0.mrc MotionCorr/job002/frames/TS_54_007_-12_0.star     4.204421     0.000000     4.204421 CtfFind/job003/frames/TS_54_007_-12_0_PS.ctf:mrc 15407.278320 15285.457031   121.821289    -24.39998     0.035736     5.688076     0.000000    -40.72000    85.032451    -16.32057    -81.58336 [0.0656283357674,-0.9962438941,-0.0564891424634,3788.87552073] [0.755059897604,0.08659157902,-0.649912657779,1150.13391194] [0.6523630023,0,0.757906675339,-2441.58601761]  [0,0,0,1] 
frames/TS_54_008_12.0.mrc           10            9    12.000500    85.000000     -1.50000    24.000000 MotionCorr/job002/frames/TS_54_008_12_0_PS.mrc MotionCorr/job002/frames/TS_54_008_12_0.mrc MotionCorr/job002/frames/TS_54_008_12_0.star     3.162805     0.000000     3.162805 CtfFind/job003/frames/TS_54_008_12_0_PS.ctf:mrc 15210.916992 14739.456055   471.460938     -9.73524     0.033712     7.465600     0.000000    -16.72000    85.118328    -14.32968    -73.48339 [0.0815005214732,-0.996372580528,-0.0244823409063,3710.85305465] [0.954248067544,0.0850982964039,-0.286651251753,215.852011215] [0.287694841623,0,0.957722127438,-2011.9728744]  [0,0,0,1] 
frames/TS_54_009_15.0.mrc           10           10    15.000200    85.000000     -1.50000    27.000000 MotionCorr/job002/frames/TS_54_009_15_0_PS.mrc MotionCorr/job002/frames/TS_54_009_15_0.mrc MotionCorr/job002/frames/TS_54_009_15_0.star     3.554805     0.000000     3.554805 CtfFind/job003/frames/TS_54_009_15_0_PS.ctf:mrc 15543.325195 15205.659180   337.666016    66.099609     0.030499     5.972480     0.000000    -13.72000    85.126948    -10.19556    -51.68043 [0.0825245113712,-0.996385335922,-0.0201478289716,3705.39112367] [0.967954837913,0.0849483981729,-0.236319951521,129.391652887] [0.237177267671,0,0.971466362476,-1931.55407906]  [0,0,0,1] 
frames/TS_54_010_-15.0.mrc           10           11    -15.00320    85.000000     -1.50000    30.000000 MotionCorr/job002/frames/TS_54_010_-15_0_PS.mrc MotionCorr/job002/frames/TS_54_010_-15_0.mrc MotionCorr/job002/frames/TS_54_010_-15_0.star     5.211482     0.000000     5.211482 CtfFind/job003/frames/TS_54_010_-15_0_PS.ctf:mrc 15677.593750 15473.441406   204.152344    -39.64589     0.032767     5.733581     0.000000    -43.72000    85.017815    -19.24967   -103.70140 [0.0627658300499,-0.996221780777,-0.0600222638245,3797.68628164] [0.719995310836,0.0868459641933,-0.688523492242,1261.28683941] [0.691134750843,0,0.72272592783,-2466.35839343]  [0,0,0,1] 
frames/TS_54_011_-18.0.mrc           10           12    -18.00180    85.000000     -1.50000    33.000000 MotionCorr/job002/frames/TS_54_011_-18_0_PS.mrc MotionCorr/job002/frames/TS_54_011_-18_0.mrc MotionCorr/job002/frames/TS_54_011_-18_0.star     5.179608     0.000000     5.179608 CtfFind/job003/frames/TS_54_011_-18_0_PS.ctf:mrc 15898.349609 15204.513672   693.835938    -40.59508     0.034846     6.456735     0.000000    -46.72000    85.001624    -16.44032    -97.98291 [0.0597315268143,-0.996197164059,-0.0634298995305,3810.89811119] [0.682957191074,0.0871275365353,-0.725243574439,1394.11597533] [0.728012084961,0,0.685564279556,-2484.37058926]  [0,0,0,1] 
frames/TS_54_012_18.0.mrc           10           13    18.000800    85.000000     -1.50000    36.000000 MotionCorr/job002/frames/TS_54_012_18_0_PS.mrc MotionCorr/job002/frames/TS_54_012_18_0.mrc MotionCorr/job002/frames/TS_54_012_18_0.star     4.631201     0.000000     4.631201 CtfFind/job003/frames/TS_54_012_18_0_PS.ctf:mrc 15606.369141 15229.369141   377.000000    74.817215     0.037247     7.166976     0.000000    -10.72000    85.135349     -8.46213    -56.50857 [0.083322324815,-0.996397793293,-0.0157740419177,3698.54375613] [0.979008598049,0.0848022997379,-0.185339555727,27.5293380178] [0.186009600759,0,0.982547938824,-1845.84110975]  [0,0,0,1] 
frames/TS_54_013_21.0.mrc           10           14    21.000400    85.000000     -1.50000    39.000000 MotionCorr/job002/frames/TS_54_013_21_0_PS.mrc MotionCorr/job002/frames/TS_54_013_21_0.mrc MotionCorr/job002/frames/TS_54_013_21_0.star     3.748243     0.000000     3.748243 CtfFind/job003/frames/TS_54_013_21_0_PS.ctf:mrc 15335.933594 14933.012695   402.920898    75.828133     0.024797     6.761298     0.000000     -7.72000    85.143595     -5.21405    -39.93599 [0.0838914952984,-0.996410012245,-0.0113723948029,3693.23336832] [0.98737894897,0.0846588090062,-0.133849840056,-53.8829669792] [0.134332090616,0,0.990936398506,-1755.06877899]  [0,0,0,1] 
frames/TS_54_014_-21.0.mrc           10           15    -21.00040    85.000000     -1.50000    42.000000 MotionCorr/job002/frames/TS_54_014_-21_0_PS.mrc MotionCorr/job002/frames/TS_54_014_-21_0.mrc MotionCorr/job002/frames/TS_54_014_-21_0.star     5.670879     0.000000     5.670879 CtfFind/job003/frames/TS_54_014_-21_0_PS.ctf:mrc 16043.852539 14847.661133  1196.191406    -78.25120     0.022716     7.624442     0.000000    -49.72000    84.983530    -23.75187   -115.33692 [0.0565333852869,-0.996169626713,-0.0667090678488,3816.74210759] [0.644047108773,0.0874421149492,-0.759971865455,1510.54459815] [0.762894034386,0,0.646523535252,-2495.57337165]  [0,0,0,1] 
frames/TS_54_015_-24.0.mrc           10           16    -24.00010    85.000000     -1.50000    45.000000 MotionCorr/job002/frames/TS_54_015_-24_0_PS.mrc MotionCorr/job002/frames/TS_54_015_-24_0.mrc MotionCorr/job002/frames/TS_54_015_-24_0.star     6.116622     0.000000     6.116622 CtfFind/job003/frames/TS_54_015_-24_0_PS.ctf:mrc 15808.952148 15170.048828   638.903320    -88.58381     0.020845     6.825691     0.000000    -52.72000    84.963054    -21.48051   -116.92135 [0.0531802676017,-0.99613827467,-0.0698596572568,3829.79401039] [0.603371596957,0.0877981334925,-0.792612276374,1638.97054848] [0.795684993267,0,0.605710685253,-2499.93601441]  [0,0,0,1] 
frames/TS_54_016_24.0.mrc           10           17    24.000100    85.000000     -1.50000    48.000000 MotionCorr/job002/frames/TS_54_016_24_0_PS.mrc MotionCorr/job002/frames/TS_54_016_24_0.mrc MotionCorr/job002/frames/TS_54_016_24_0.star     5.227115     0.000000     5.227115 CtfFind/job003/frames/TS_54_016_24_0_PS.ctf:mrc 15421.240234 15360.740234    60.500000    34.985867     0.030549     6.825691     0.000000     -4.72000    85.151709     -5.47043    -46.63590 [0.0842310730353,-0.996421992779,-0.00695465581755,3685.76165284] [0.993042860883,0.0845176950097,-0.0819919663926,-147.678270345] [0.082286387682,0,0.996608734131,-1659.48587656]  [0,0,0,1] 
frames/TS_54_017_27.0.mrc           10           18    26.999700    85.000000     -1.50000    51.000000 MotionCorr/job002/frames/TS_54_017_27_0_PS.mrc MotionCorr/job002/frames/TS_54_017_27_0.mrc MotionCorr/job002/frames/TS_54_017_27_0.star     4.944693     0.000000     4.944693 CtfFind/job003/frames/TS_54_017_27_0_PS.ctf:mrc 15271.043945 15225.046875    45.997070    35.614094     0.014710     7.706425     0.000000     -1.72000    85.159770     -4.60508    -26.83131 [0.0843395182619,-0.996433854103,-0.00253260468179,3679.57640982] [0.995984909326,0.0843775346875,-0.0299081153928,-216.737755678] [0.0300151538104,0,0.99954944849,-1559.35448036]  [0,0,0,1] 
frames/TS_54_018_-27.0.mrc           10           19    -27.00170    85.000000     -1.50000    54.000000 MotionCorr/job002/frames/TS_54_018_-27_0_PS.mrc MotionCorr/job002/frames/TS_54_018_-27_0.mrc MotionCorr/job002/frames/TS_54_018_-27_0.star     7.048137     0.000000     7.048137 CtfFind/job003/frames/TS_54_018_-27_0_PS.ctf:mrc 16217.480469 14825.364258  1392.116211    47.715073     0.027060     7.465600     0.000000    -55.72000    84.939535    -18.47557   -121.26498 [0.0496814917501,-0.996102154255,-0.0728849801203,3843.48318408] [0.56104225354,0.0882069766521,-0.823074188303,1765.28691022] [0.826294958591,0,0.563237667084,-2497.44641781]  [0,0,0,1] 
frames/TS_54_019_-30.0.mrc           10           20    -30.00030    85.000000     -1.50000    57.000000 MotionCorr/job002/frames/TS_54_019_-30_0_PS.mrc MotionCorr/job002/frames/TS_54_019_-30_0.mrc MotionCorr/job002/frames/TS_54_019_-30_0.star     6.360835     0.000000     6.360835 CtfFind/job003/frames/TS_54_019_-30_0_PS.ctf:mrc 16887.775391 16229.583984   658.191406    24.372784     0.019907    11.944960     0.000000    -58.72000    84.912120    -14.07436   -128.43935 [0.0460463697225,-0.996059834957,-0.0757925728234,3858.29033637] [0.51717495388,0.0886836051941,-0.851272762449,1889.05176849] [0.854640185833,0,0.519220769405,-2488.11152577]  [0,0,0,1] 
frames/TS_54_020_30.0.mrc           10           21    29.999300    85.000000     -1.50000    60.000000 MotionCorr/job002/frames/TS_54_020_30_0_PS.mrc MotionCorr/job002/frames/TS_54_020_30_0.mrc MotionCorr/job002/frames/TS_54_020_30_0.star     5.204004     0.000000     5.204004 CtfFind/job003/frames/TS_54_020_30_0_PS.ctf:mrc 15379.966797 15170.198242   209.768555    62.885571     0.017724     9.307761     0.000000     1.280000    85.167792    -10.00066    -30.34646 [0.0842169451646,-0.996445655823,0.00188173751774,3669.22691504] [0.996197037607,0.0842379629612,0.0222589567582,-297.737294791] [-0.0223383549601,0,0.999750494957,-1454.94903252]  [0,0,0,1] 
frames/TS_54_021_33.0.mrc           10           22    32.999500    85.000000     -1.50000    63.000000 MotionCorr/job002/frames/TS_54_021_33_0_PS.mrc MotionCorr/job002/frames/TS_54_021_33_0.mrc MotionCorr/job002/frames/TS_54_021_33_0.star     5.533094     0.000000     5.533094 CtfFind/job003/frames/TS_54_021_33_0_PS.ctf:mrc 15702.344727 15358.285156   344.059570    -33.70395     0.018778     9.555968     0.000000     4.280000    85.175830     -2.54844    -12.66634 [0.0838637328385,-0.996457457542,0.00627630734573,3668.88525283] [0.993678554802,0.084098264575,0.0743662582347,-357.485503883] [-0.0746306404471,0,0.99721121788,-1346.55554593]  [0,0,0,1] 
frames/TS_54_022_-33.0.mrc           10           23    -32.99950    85.000000     -1.50000    66.000000 MotionCorr/job002/frames/TS_54_022_-33_0_PS.mrc MotionCorr/job002/frames/TS_54_022_-33_0.mrc MotionCorr/job002/frames/TS_54_022_-33_0.star     8.157614     0.000000     8.157614 CtfFind/job003/frames/TS_54_022_-33_0_PS.ctf:mrc 17180.794922 16419.507812   761.287109     -3.49481     0.019303     9.685102     0.000000    -61.72000    84.879521     -7.92741   -137.02220 [0.0422850451343,-0.996009230614,-0.0785975627454,3874.47256248] [0.471890090561,0.0892502218485,-0.877128329507,2010.91394352] [0.880642771721,0,0.473780840635,-2471.95680439]  [0,0,0,1] 
frames/TS_54_023_-36.0.mrc           10           24    -36.00010    85.000000     -1.50000    69.000000 MotionCorr/job002/frames/TS_54_023_-36_0_PS.mrc MotionCorr/job002/frames/TS_54_023_-36_0.mrc MotionCorr/job002/frames/TS_54_023_-36_0.star     7.348201     0.000000     7.348201 CtfFind/job003/frames/TS_54_023_-36_0_PS.ctf:mrc 15451.754883 15363.043945    88.710938    -78.83367     0.023167     9.072121     0.000000    -64.72000    84.839879     -6.50352   -149.15399 [0.0384078864263,-0.995947241783,-0.0813259921286,3887.25027298] [0.425311487531,0.0899393260479,-0.900567094561,2128.86457468] [0.904231727123,0,0.42704218626,-2449.02673364]  [0,0,0,1] 
frames/TS_54_024_36.0.mrc           10           25    36.000100    85.000000     -1.50000    72.000000 MotionCorr/job002/frames/TS_54_024_36_0_PS.mrc MotionCorr/job002/frames/TS_54_024_36_0.mrc MotionCorr/job002/frames/TS_54_024_36_0.star     6.826955     0.000000     6.826955 CtfFind/job003/frames/TS_54_024_36_0_PS.ctf:mrc 14588.098633 13782.875977   805.222656    47.418995     0.021446    10.094332     0.000000     7.280000    85.183949     -3.70607    -27.95528 [0.0832801111614,-0.996469378471,0.0106388819849,3662.6749709] [0.988436550047,0.0839569121599,0.126270962645,-435.90098616] [-0.126718357205,0,0.991938710213,-1234.47135091]  [0,0,0,1] 
frames/TS_54_025_39.0.mrc           10           26    38.999200    85.000000     -1.50000    75.000000 MotionCorr/job002/frames/TS_54_025_39_0_PS.mrc MotionCorr/job002/frames/TS_54_025_39_0.mrc MotionCorr/job002/frames/TS_54_025_39_0.star     7.478788     0.000000     7.478788 CtfFind/job003/frames/TS_54_025_39_0_PS.ctf:mrc 17386.587891 16294.345703  1092.242188     0.067483     0.018675     7.790191     0.000000    10.280000    85.192166     7.698796     -5.52877 [0.0824685769348,-0.99648141861,0.0149573447311,3666.2924781] [0.980485297281,0.0838140100241,0.177830843459,-480.440263502] [-0.178458765149,0,0.983947396278,-1119.00356412]  [0,0,0,1] 
frames/TS_54_026_-39.0.mrc           10           27    -39.00020    85.000000     -1.50000    78.000000 MotionCorr/job002/frames/TS_54_026_-39_0_PS.mrc MotionCorr/job002/frames/TS_54_026_-39_0.mrc MotionCorr/job002/frames/TS_54_026_-39_0.star     8.383007     0.000000     8.383007 CtfFind/job003/frames/TS_54_026_-39_0_PS.ctf:mrc 17272.238281 16303.975586   968.262695    -54.83680     0.019458     9.817775     0.000000    -67.72000    84.790339     3.172336   -149.31434 [0.0344254927701,-0.995869100094,-0.0840215580961,3906.26943031] [0.377567003727,0.0908005312085,-0.921519646812,2253.94118331] [0.925342142582,0,0.379133164883,-2419.38403249]  [0,0,0,1] 
frames/TS_54_027_-42.0.mrc           10           28    -42.00040    85.000000     -1.50000    81.000000 MotionCorr/job002/frames/TS_54_027_-42_0_PS.mrc MotionCorr/job002/frames/TS_54_027_-42_0.mrc MotionCorr/job002/frames/TS_54_027_-42_0.star     8.600997     0.000000     8.600997 CtfFind/job003/frames/TS_54_027_-42_0_PS.ctf:mrc 17198.771484 15800.114258  1398.657227    -21.45541     0.020089     9.555968     0.000000    -70.72000    84.726272     -2.17550   -168.44761 [0.0303486241798,-0.995766937733,-0.08675915966,3914.36388363] [0.328787154099,0.0919140428305,-0.939920604887,2362.70250458] [0.943916261196,0,0.330184847116,-2383.10979307]  [0,0,0,1] 
frames/TS_54_028_42.0.mrc           10           29    41.996900    85.000000     -1.50000    84.000000 MotionCorr/job002/frames/TS_54_028_42_0_PS.mrc MotionCorr/job002/frames/TS_54_028_42_0.mrc MotionCorr/job002/frames/TS_54_028_42_0.star     8.411813     0.000000     8.411813 CtfFind/job003/frames/TS_54_028_42_0_PS.ctf:mrc 15203.471680 14862.922852   340.548828    81.983940     0.016682    11.376152     0.000000    13.280000    85.200537     -8.55416    -12.47568 [0.0814311139643,-0.996493637562,0.019219488815,3649.95939842] [0.969846492257,0.0836684852839,0.228904566114,-540.628044993] [-0.229710012674,0,0.973259091377,-1000.46861172]  [0,0,0,1] 
frames/TS_54_029_45.0.mrc           10           30    44.997500    85.000000     -1.50000    87.000000 MotionCorr/job002/frames/TS_54_029_45_0_PS.mrc MotionCorr/job002/frames/TS_54_029_45_0.mrc MotionCorr/job002/frames/TS_54_029_45_0.star     8.972746     0.000000     8.972746 CtfFind/job003/frames/TS_54_029_45_0_PS.ctf:mrc 15353.917969 15230.205078   123.712891    46.586933     0.017134    10.539670     0.000000    16.280000    85.209122    10.385322     2.828005 [0.0801703151944,-0.996506154537,0.0234130680014,3660.24490779] [0.956549427227,0.0835191681981,0.2793522357,-578.070725882] [-0.280331671238,0,0.959903180599,-879.191428423]  [0,0,0,1] 
frames/TS_54_030_-45.0.mrc           10           31    -45.00000    85.000000     -1.50000    90.000000 MotionCorr/job002/frames/TS_54_030_-45_0_PS.mrc MotionCorr/job002/frames/TS_54_030_-45_0.mrc MotionCorr/job002/frames/TS_54_030_-45_0.star    10.823060     0.000000    10.823060 CtfFind/job003/frames/TS_54_030_-45_0_PS.ctf:mrc 26091.238281 25772.125000   319.113281    -53.69946     0.013138     9.685102     0.000000    -73.72000    84.639635     -6.63397   -188.95403 [0.0261884646666,-0.995626807213,-0.0896737535577,3923.4732658] [0.279105697123,0.0934195816517,-0.955705338933,2467.54150418] [0.959903180599,0,0.280331641436,-2340.30382335]  [0,0,0,1] 
frames/TS_54_031_-48.0.mrc           10           32    -47.99960    85.000000     -1.50000    93.000000 MotionCorr/job002/frames/TS_54_031_-48_0_PS.mrc MotionCorr/job002/frames/TS_54_031_-48_0.mrc MotionCorr/job002/frames/TS_54_031_-48_0.star     9.517365     0.000000     9.517365 CtfFind/job003/frames/TS_54_031_-48_0_PS.ctf:mrc 13634.730469 13581.888672    52.841797     6.187418     0.016298     4.908887     0.000000    -76.72000    84.515107     -9.52623   -212.00056 [0.021956441287,-0.995421409607,-0.0930272985903,3934.41442156] [0.228658309116,0.0955832824111,-0.968802936652,2566.68376859] [0.973259091377,0,0.229710057378,-2291.08326882]  [0,0,0,1] 
frames/TS_54_032_48.0.mrc           10           33    47.998100    85.000000     -1.50000    96.000000 MotionCorr/job002/frames/TS_54_032_48_0_PS.mrc MotionCorr/job002/frames/TS_54_032_48_0.mrc MotionCorr/job002/frames/TS_54_032_48_0.star     7.440981     0.000000     7.440981 CtfFind/job003/frames/TS_54_032_48_0_PS.ctf:mrc 17070.248047 16550.347656   519.900391    -46.16451     0.021078     4.684298     0.000000    19.280000    85.217982    -11.52387    -12.41241 [0.0786896642477,-0.996519088745,0.0275258970131,3640.83380348] [0.940630572459,0.0833650901914,0.329035592062,-631.739092652] [-0.330184936523,0,0.943916261196,-755.504518747]  [0,0,0,1] 
frames/TS_54_033_51.0.mrc           10           34    50.996300    85.000000     -1.50000    99.000000 MotionCorr/job002/frames/TS_54_033_51_0_PS.mrc MotionCorr/job002/frames/TS_54_033_51_0.mrc MotionCorr/job002/frames/TS_54_033_51_0.star     9.483193     0.000000     9.483193 CtfFind/job003/frames/TS_54_033_51_0_PS.ctf:mrc 18248.468750 17330.398438   918.070312    -20.43874     0.020442     9.817775     0.000000    22.280000    85.227152     5.276865     -4.13350 [0.0769937130623,-0.996532380581,0.0315460315279,3650.66707663] [0.922133408199,0.0832056701183,0.377818505057,-661.467763109] [-0.379133194685,0,0.925342142582,-629.746824503]  [0,0,0,1] 
frames/TS_54_034_-51.0.mrc           10           35    -50.99930    85.000000     -1.50000   102.000000 MotionCorr/job002/frames/TS_54_034_-51_0_PS.mrc MotionCorr/job002/frames/TS_54_034_-51_0.mrc MotionCorr/job002/frames/TS_54_034_-51_0.star    12.306474     0.000000    12.306474 CtfFind/job003/frames/TS_54_034_-51_0_PS.ctf:mrc 28878.789062 27080.234375  1798.554688    72.200935     0.022796    25.000000     0.000000    -79.72000    84.319511    -14.54344   -223.28432 [0.0176640043706,-0.995089352131,-0.0973919804106,3945.1657454] [0.177582402166,0.0989808812737,-0.979115577094,2669.15100246] [0.983947396278,0,0.178458750248,-2235.58291793]  [0,0,0,1] 
frames/TS_54_035_-54.0.mrc           10           36    -53.99940    85.000000     -1.50000   105.000000 MotionCorr/job002/frames/TS_54_035_-54_0_PS.mrc MotionCorr/job002/frames/TS_54_035_-54_0.mrc MotionCorr/job002/frames/TS_54_035_-54_0.star    12.394400     0.000000    12.394400 CtfFind/job003/frames/TS_54_035_-54_0_PS.ctf:mrc 17095.046875 16923.638672   171.408203    -66.28429     0.015036    25.000000     0.000000    -82.72000    83.965021    -19.45024   -266.83641 [0.013322621481,-0.994457900524,-0.104288120506,3959.2951507] [0.12601611592,0.105135649443,-0.986441287207,2738.70179712] [0.991938710213,0,0.126718401909,-2173.95502329]  [0,0,0,1] 
frames/TS_54_036_54.0.mrc           10           37    53.997400    85.000000     -1.50000   108.000000 MotionCorr/job002/frames/TS_54_036_54_0_PS.mrc MotionCorr/job002/frames/TS_54_036_54_0.mrc MotionCorr/job002/frames/TS_54_036_54_0.star    10.355940     0.000000    10.355940 CtfFind/job003/frames/TS_54_036_54_0_PS.ctf:mrc 14269.249023 13876.908203   392.340820    -30.54008     0.018887     7.624442     0.000000    25.280000    85.236742    -18.67863    -19.12273 [0.0750863862163,-0.996546328068,0.0354611104162,3630.89219586] [0.901108747988,0.0830388814211,0.425567382046,-701.811320037] [-0.427042245865,0,0.904231667519,-502.263009548]  [0,0,0,1] 
frames/TS_54_037_57.0.mrc           10           38    56.996500    85.000000     -1.50000   111.000000 MotionCorr/job002/frames/TS_54_037_57_0_PS.mrc MotionCorr/job002/frames/TS_54_037_57_0.mrc MotionCorr/job002/frames/TS_54_037_57_0.star    11.215692     0.000000    11.215692 CtfFind/job003/frames/TS_54_037_57_0_PS.ctf:mrc 24996.566406 24605.830078   390.736328     4.633451     0.018087    25.000000     0.000000    28.280000    85.246821     -2.30178     1.317112 [0.072973170501,-0.996560931206,0.0392591538522,3641.58177211] [0.877614180646,0.0828635320067,0.472151475731,-709.207000383] [-0.473780840635,0,0.880642771721,-373.402476311]  [0,0,0,1] 
frames/TS_54_038_-57.0.mrc           10           39    -56.99900    85.000000     -1.50000   114.000000 MotionCorr/job002/frames/TS_54_038_-57_0_PS.mrc MotionCorr/job002/frames/TS_54_038_-57_0.mrc MotionCorr/job002/frames/TS_54_038_-57_0.star    15.517729     0.000000    15.517729 CtfFind/job003/frames/TS_54_038_-57_0_PS.ctf:mrc 36148.832031 35541.066406   607.765625     -2.23505     0.019306    25.000000     0.000000    -85.72000    83.117876    -16.53436   -277.98791 [0.00894276936165,-0.992794752121,-0.119492912613,3989.69566036] [0.0740928859927,0.119827084243,-0.990026063868,2810.28218866] [0.99721121788,0,0.0746306180954,-2106.3683629]  [0,0,0,1] 
frames/TS_54_039_-60.0.mrc           10           40    -59.99910    85.000000     -1.50000   117.000000 MotionCorr/job002/frames/TS_54_039_-60_0_PS.mrc MotionCorr/job002/frames/TS_54_039_-60_0.mrc MotionCorr/job002/frames/TS_54_039_-60_0.star    15.023549     0.000000    15.023549 CtfFind/job003/frames/TS_54_039_-60_0_PS.ctf:mrc 19552.054688 19502.941406    49.113281     9.296566     0.017183    10.539670     0.000000    -88.71000    78.342879    -13.81790   -322.49878 [0.00454882576154,-0.979374289513,-0.202003217613,4097.42027614] [0.0220485296209,0.202054426074,-0.979126077921,2700.5952166] [0.99974656105,0,0.0225128736347,-2033.26243255]  [0,0,0,1] 
frames/TS_54_040_60.0.mrc           10           41    59.997200    85.000000     -1.50000   120.000000 MotionCorr/job002/frames/TS_54_040_60_0_PS.mrc MotionCorr/job002/frames/TS_54_040_60_0.mrc MotionCorr/job002/frames/TS_54_040_60_0.star     9.816453     0.000000     9.816453 CtfFind/job003/frames/TS_54_040_60_0_PS.ctf:mrc 46107.773438 45922.328125   185.445312    21.001186     0.019244     9.430231     0.000000    31.280000    85.257475    -18.10592    -13.24041 [0.0706601126386,-0.996576309204,0.042928246798,3629.02822812] [0.851714102694,0.082678206265,0.517443177437,-735.757094444] [-0.51922082901,0,0.854640126228,-243.518531322]  [0,0,0,1] 
 
