
# version 30001

data_220728_TS_01

loop_ 
_rlnMicrographMovieName #1 
_rlnTomoTiltMovieFrameCount #2 
_rlnTomoTiltMovieIndex #3 
_rlnTomoNominalStageTiltAngle #4 
_rlnTomoNominalTiltAxisAngle #5 
_rlnTomoNominalDefocus #6 
_rlnMicrographPreExposure #7 
_rlnCtfPowerSpectrum #8 
_rlnMicrographName #9 
_rlnMicrographMetadata #10 
_rlnAccumMotionTotal #11 
_rlnAccumMotionEarly #12 
_rlnAccumMotionLate #13 
_rlnCtfImage #14 
_rlnDefocusU #15 
_rlnDefocusV #16 
_rlnCtfAstigmatism #17 
_rlnDefocusAngle #18 
_rlnCtfFigureOfMerit #19 
_rlnCtfMaxResolution #20 
_rlnTomoXTilt #21 
_rlnTomoYTilt #22 
_rlnTomoZRot #23 
_rlnTomoXShiftAngst #24 
_rlnTomoYShiftAngst #25 
_rlnTomoProjX #26 
_rlnTomoProjY #27 
_rlnTomoProjZ #28 
_rlnTomoProjW #29 
frames/TS_01_000_0.0.mrc            8            1     0.001000    85.000000     -4.00000     0.000000 MotionCorr/job002/frames/TS_01_000_0_0_PS.mrc MotionCorr/job002/frames/TS_01_000_0_0.mrc MotionCorr/job002/frames/TS_01_000_0_0.star     2.302279     1.013093     1.289185 CtfFind/job003/frames/TS_01_000_0_0_PS.ctf:mrc 39424.761719 38845.812500   578.949219    55.762489     0.031995     8.634910     0.000000     9.020000    85.267461    -64.15332     2.585551 [0.0814842382114,-0.996590673923,0.0129349948257,3618.28940437] [0.984266480393,0.0825045183301,0.156244718125,-446.99385167] [-0.156779229641,0,0.987633645535,-1167.89200902]  [0,0,0,1] 
frames/TS_01_001_3.0.mrc            8            2     3.001130    85.000000     -4.00000     3.000000 MotionCorr/job002/frames/TS_01_001_3_0_PS.mrc MotionCorr/job002/frames/TS_01_001_3_0.mrc MotionCorr/job002/frames/TS_01_001_3_0.star     2.381870     0.000000     2.381870 CtfFind/job003/frames/TS_01_001_3_0_PS.ctf:mrc 39158.597656 38873.542969   285.054688    -82.98737     0.030167     8.144291     0.000000    12.020000    85.275607    -70.67049    -32.61262 [0.0805570885151,-0.996602416039,0.0171523300395,3609.01364814] [0.974751876037,0.0823628976941,0.207545557971,-530.705379974] [-0.208253115416,0,0.978074967861,-1050.60622096]  [0,0,0,1] 
frames/TS_01_002_-3.0.mrc            8            3     -2.99863    85.000000     -4.00000     6.000000 MotionCorr/job002/frames/TS_01_002_-3_0_PS.mrc MotionCorr/job002/frames/TS_01_002_-3_0.mrc MotionCorr/job002/frames/TS_01_002_-3_0.star     2.015379     0.000000     2.015379 CtfFind/job003/frames/TS_01_002_-3_0_PS.ctf:mrc 39430.148438 39249.851562   180.296875     -0.70650     0.016011     7.026447     0.000000     6.020000    85.259464    -67.26383    28.184126 [0.0821878822561,-0.996579170227,0.00866730163351,3620.95656275] [0.991083353674,0.082643635571,0.104516847672,-364.352119627] [-0.104875609279,0,0.994485318661,-1281.97675943]  [0,0,0,1] 
frames/TS_01_003_-6.0.mrc            8            4     -5.99876    85.000000     -4.00000     9.000000 MotionCorr/job002/frames/TS_01_003_-6_0_PS.mrc MotionCorr/job002/frames/TS_01_003_-6_0.mrc MotionCorr/job002/frames/TS_01_003_-6_0.star     3.213956     0.000000     3.213956 CtfFind/job003/frames/TS_01_003_-6_0_PS.ctf:mrc 40324.406250 38719.566406  1604.839844    54.349129     0.021745     8.144291     0.000000     3.020000    85.251530    -61.33460    63.696972 [0.0826665946624,-0.996567726135,0.0043613082869,3630.82726274] [0.995183704614,0.082781560719,0.0525037103033,-268.503153898] [-0.0526845380664,0,0.998611211777,-1392.54774153]  [0,0,0,1] 
frames/TS_01_004_6.0.mrc            8            5     6.001260    85.000000     -4.00000    12.000000 MotionCorr/job002/frames/TS_01_004_6_0_PS.mrc MotionCorr/job002/frames/TS_01_004_6_0.mrc MotionCorr/job002/frames/TS_01_004_6_0.star     2.313659     0.000000     2.313659 CtfFind/job003/frames/TS_01_004_6_0_PS.ctf:mrc 39574.316406 39277.167969   297.148438    51.147892     0.022663     9.685102     0.000000    15.020000    85.283932    -74.12598    -57.71965 [0.0794090171619,-0.996614396572,0.0213072967161,3602.54168338] [0.96256545686,0.0822179615498,0.258278826901,-600.740375689] [-0.259156227112,0,0.965835392475,-930.440634489]  [0,0,0,1] 
frames/TS_01_005_9.0.mrc            8            6     9.001400    85.000000     -4.00000    15.000000 MotionCorr/job002/frames/TS_01_005_9_0_PS.mrc MotionCorr/job002/frames/TS_01_005_9_0.mrc MotionCorr/job002/frames/TS_01_005_9_0.star     2.183929     0.000000     2.183929 CtfFind/job003/frames/TS_01_005_9_0_PS.ctf:mrc 39218.937500 38079.753906  1139.183594    78.872673     0.022123     8.848118     0.000000    18.020000    85.292498    -74.28400    -50.57572 [0.0780434873359,-0.996626615524,0.0253879889775,3599.05908624] [0.94774068077,0.0820690914989,0.308305417636,-640.54116951] [-0.309348970652,0,0.950948596001,-807.724952698]  [0,0,0,1] 
frames/TS_01_006_-9.0.mrc            8            7     -8.99890    85.000000     -4.00000    18.000000 MotionCorr/job002/frames/TS_01_006_-9_0_PS.mrc MotionCorr/job002/frames/TS_01_006_-9_0.mrc MotionCorr/job002/frames/TS_01_006_-9_0.star     2.234285     0.000000     2.234285 CtfFind/job003/frames/TS_01_006_-9_0_PS.ctf:mrc 38917.101562 38619.949219   297.152344    37.754574     0.031197     7.166976     0.000000     0.020000    85.243659    -59.51778    59.744286 [0.0829185272504,-0.996556341648,2.89440272468e-05,3638.14497201] [0.996556282249,0.0829185321927,0.000347863778372,-196.216397884] [-0.000349065841874,0,0.999999940395,-1499.30177891]  [0,0,0,1] 
frames/TS_01_007_-12.0.mrc            8            8    -11.99850    85.000000     -4.00000    21.000000 MotionCorr/job002/frames/TS_01_007_-12_0_PS.mrc MotionCorr/job002/frames/TS_01_007_-12_0.mrc MotionCorr/job002/frames/TS_01_007_-12_0.star     2.304549     0.000000     2.304549 CtfFind/job003/frames/TS_01_007_-12_0_PS.ctf:mrc 39676.550781 38241.132812  1435.417969    56.943321     0.029685     7.166976     0.000000     -2.98000    85.235776    -63.14359    87.050043 [0.0829433183023,-0.996544897556,-0.00431784335979,3641.90689688] [0.995197319145,0.0830556303263,-0.0518077432167,-95.3127707832] [0.0519873648882,0,0.998647749424,-1601.94635391]  [0,0,0,1] 
frames/TS_01_008_12.0.mrc            8            9    12.000500    85.000000     -4.00000    24.000000 MotionCorr/job002/frames/TS_01_008_12_0_PS.mrc MotionCorr/job002/frames/TS_01_008_12_0.mrc MotionCorr/job002/frames/TS_01_008_12_0.star     2.103123     0.000000     2.103123 CtfFind/job003/frames/TS_01_008_12_0_PS.ctf:mrc 39368.742188 39103.257812   265.484375    -61.77478     0.026985     6.891323     0.000000    21.020000    85.301363    -76.39424    -79.88411 [0.0764638773583,-0.996639311314,0.0293823624845,3594.68899752] [0.930318235783,0.0819148793817,0.357488379796,-700.872213357] [-0.35869383812,0,0.93345528841,-682.795256376]  [0,0,0,1] 
frames/TS_01_009_15.0.mrc            8           10    15.000700    85.000000     -4.00000    27.000000 MotionCorr/job002/frames/TS_01_009_15_0_PS.mrc MotionCorr/job002/frames/TS_01_009_15_0.mrc MotionCorr/job002/frames/TS_01_009_15_0.star     2.628780     0.000000     2.628780 CtfFind/job003/frames/TS_01_009_15_0_PS.ctf:mrc 38603.082031 38333.230469   269.851562     -1.96961     0.018469     7.963306     0.000000    24.020000    85.310596    -78.12057    -67.59410 [0.0746746162342,-0.996652543545,0.0332785178216,3591.17098826] [0.910345873163,0.0817542523146,0.405692896618,-723.809301808] [-0.407055497169,0,0.913403451443,-555.994182825]  [0,0,0,1] 
frames/TS_01_010_-15.0.mrc            8           11    -14.99870    85.000000     -4.00000    30.000000 MotionCorr/job002/frames/TS_01_010_-15_0_PS.mrc MotionCorr/job002/frames/TS_01_010_-15_0.mrc MotionCorr/job002/frames/TS_01_010_-15_0.star     3.161544     0.000000     3.161544 CtfFind/job003/frames/TS_01_010_-15_0_PS.ctf:mrc 39631.437500 39383.863281   247.574219     -6.02459     0.027526     9.307761     0.000000     -5.98000    85.227859    -56.54417    91.271944 [0.08274060684,-0.996533453465,-0.0086671883027,3653.70190681] [0.991110651602,0.0831933170557,-0.103820155234,-6.26885705823] [0.104181304574,0,0.994558334351,-1700.20011067]  [0,0,0,1] 
frames/TS_01_011_-18.0.mrc            8           12    -17.99880    85.000000     -4.00000    33.000000 MotionCorr/job002/frames/TS_01_011_-18_0_PS.mrc MotionCorr/job002/frames/TS_01_011_-18_0.mrc MotionCorr/job002/frames/TS_01_011_-18_0.star     2.925185     0.000000     2.925185 CtfFind/job003/frames/TS_01_011_-18_0_PS.ctf:mrc 39607.558594 39255.351562   352.207031    51.181522     0.017352     8.848118     0.000000     -8.98000    85.219845    -63.24352    86.603844 [0.0823112411646,-0.996521770954,-0.013007367759,3656.08506233] [0.984307304801,0.083332657814,-0.155546762754,81.1912144562] [0.156089678407,0,0.987742900848,-1793.79370809]  [0,0,0,1] 
frames/TS_01_012_18.0.mrc            8           13    18.000800    85.000000     -4.00000    36.000000 MotionCorr/job002/frames/TS_01_012_18_0_PS.mrc MotionCorr/job002/frames/TS_01_012_18_0.mrc MotionCorr/job002/frames/TS_01_012_18_0.star     3.353473     0.000000     3.353473 CtfFind/job003/frames/TS_01_012_18_0_PS.ctf:mrc 39721.683594 39308.535156   413.148438    -20.92160     0.021127     9.555968     0.000000    27.020000    85.320265    -82.05768    -99.79242 [0.0726807395935,-0.996666312218,0.0370646485304,3586.59070653] [0.887878171946,0.0815860182047,0.452786977197,-773.029157208] [-0.454301476479,0,0.890847980976,-427.669018507]  [0,0,0,1] 
frames/TS_01_013_21.0.mrc            8           14    21.000900    85.000000     -4.00000    39.000000 MotionCorr/job002/frames/TS_01_013_21_0_PS.mrc MotionCorr/job002/frames/TS_01_013_21_0.mrc MotionCorr/job002/frames/TS_01_013_21_0.star     3.794572     0.000000     3.794572 CtfFind/job003/frames/TS_01_013_21_0_PS.ctf:mrc 39691.222656 39384.773438   306.449219    37.031017     0.021767    10.859054     0.000000    30.020000    85.330463    -83.42718   -100.07567 [0.0704877256094,-0.996680796146,0.0407289198428,3584.49484872] [0.862976870904,0.0814086273313,0.49864164998,-791.863598107] [-0.500302255154,0,0.865850806236,-298.171699047]  [0,0,0,1] 
frames/TS_01_014_-21.0.mrc            8           15    -20.99890    85.000000     -4.00000    42.000000 MotionCorr/job002/frames/TS_01_014_-21_0_PS.mrc MotionCorr/job002/frames/TS_01_014_-21_0.mrc MotionCorr/job002/frames/TS_01_014_-21_0.star     3.210726     0.000000     3.210726 CtfFind/job003/frames/TS_01_014_-21_0_PS.ctf:mrc 39959.675781 39018.269531   941.406250    89.152519     0.015949     7.875797     0.000000    -11.98000    85.211703    -56.37801   117.465712 [0.0816563194808,-0.99650990963,-0.0173267976547,3668.93588567] [0.974806028602,0.0834743827581,-0.206845801006,199.719517307] [0.207570239902,0,0.978220105171,-1882.47063756]  [0,0,0,1] 
frames/TS_01_015_-24.0.mrc            8           16    -23.99860    85.000000     -4.00000    45.000000 MotionCorr/job002/frames/TS_01_015_-24_0_PS.mrc MotionCorr/job002/frames/TS_01_015_-24_0.mrc MotionCorr/job002/frames/TS_01_015_-24_0.star     4.364646     0.000000     4.364646 CtfFind/job003/frames/TS_01_015_-24_0_PS.ctf:mrc 39904.675781 39295.964844   608.710938    39.160789     0.021829     8.237903     0.000000    -14.98000    85.203383    -64.82534    92.385788 [0.0807772568096,-0.996497809887,-0.0216139827291,3670.8433084] [0.962632941675,0.083618953824,-0.257576607546,281.295037357] [0.258481860161,0,0.966016113758,-1965.98789096]  [0,0,0,1] 
frames/TS_01_016_24.0.mrc            8           17    24.000600    85.000000     -4.00000    48.000000 MotionCorr/job002/frames/TS_01_016_24_0_PS.mrc MotionCorr/job002/frames/TS_01_016_24_0.mrc MotionCorr/job002/frames/TS_01_016_24_0.star     3.288678     0.000000     3.288678 CtfFind/job003/frames/TS_01_016_24_0_PS.ctf:mrc 39611.492188 38983.046875   628.445312    -62.59922     0.015033     9.307761     0.000000    33.020000    85.341299    -86.35441   -120.30529 [0.0681014361887,-0.996696174145,0.0442593953841,3581.83415172] [0.835710219693,0.0812200680375,0.543131409702,-818.672719643] [-0.544931769371,0,0.83848041296,-167.857080698]  [0,0,0,1] 
frames/TS_01_017_27.0.mrc            8           18    27.000700    85.000000     -4.00000    51.000000 MotionCorr/job002/frames/TS_01_017_27_0_PS.mrc MotionCorr/job002/frames/TS_01_017_27_0.mrc MotionCorr/job002/frames/TS_01_017_27_0.star     4.509348     0.000000     4.509348 CtfFind/job003/frames/TS_01_017_27_0_PS.ctf:mrc 38810.769531 38051.296875   759.472656    -15.84149     0.020704    10.696979     0.000000    36.020000    85.352900    -82.84238   -127.15505 [0.0655285729025,-0.996712625027,0.0476442489998,3584.53700482] [0.806152916174,0.0810183212161,0.586134392508,-828.732987247] [-0.58806759119,0,0.808811783791,-37.0824933052]  [0,0,0,1] 
frames/TS_01_018_-27.0.mrc            8           19    -26.99920    85.000000     -4.00000    54.000000 MotionCorr/job002/frames/TS_01_018_-27_0_PS.mrc MotionCorr/job002/frames/TS_01_018_-27_0.mrc MotionCorr/job002/frames/TS_01_018_-27_0.star     3.762783     0.000000     3.762783 CtfFind/job003/frames/TS_01_018_-27_0_PS.ctf:mrc 39882.226562 37848.816406  2033.410156    87.499992     0.014928     7.239369     0.000000    -17.98000    85.194816    -56.32922   122.340678 [0.0796771624233,-0.996485292912,-0.0258579355042,3685.67781312] [0.947821241284,0.0837680324912,-0.307600067337,407.844277899] [0.308685004711,0,0.95116430521,-2044.11646724]  [0,0,0,1] 
frames/TS_01_019_-30.0.mrc            8           20    -29.99880    85.000000     -4.00000    57.000000 MotionCorr/job002/frames/TS_01_019_-30_0_PS.mrc MotionCorr/job002/frames/TS_01_019_-30_0.mrc MotionCorr/job002/frames/TS_01_019_-30_0.star     5.983468     0.000000     5.983468 CtfFind/job003/frames/TS_01_019_-30_0_PS.ctf:mrc 39818.406250 39670.539062   147.867188    49.050831     0.013068     9.430231     0.000000    -20.98000    85.185956    -58.68330   102.022971 [0.0783585249156,-0.996472299099,-0.0300476427661,3692.8299014] [0.93041161555,0.0839221030474,-0.356778996027,501.073627956] [0.358042061329,0,0.933705449104,-2116.64229631]  [0,0,0,1] 
frames/TS_01_020_30.0.mrc            8           21    30.000800    85.000000     -4.00000    60.000000 MotionCorr/job002/frames/TS_01_020_30_0_PS.mrc MotionCorr/job002/frames/TS_01_020_30_0.mrc MotionCorr/job002/frames/TS_01_020_30_0.star     4.085809     0.000000     4.085809 CtfFind/job003/frames/TS_01_020_30_0_PS.ctf:mrc 40010.761719 39089.070312   921.691406    87.356293     0.020189    11.559638     0.000000    39.020000    85.365420    -93.11441   -138.41019 [0.0627760470747,-0.996730268002,0.0508713358869,3577.62779876] [0.774385878943,0.0808005258441,0.627533047867,-835.198445078] [-0.62959164381,0,0.776926219463,93.7939584255]  [0,0,0,1] 
frames/TS_01_021_33.0.mrc            8           22    33.001000    85.000000     -4.00000    63.000000 MotionCorr/job002/frames/TS_01_021_33_0_PS.mrc MotionCorr/job002/frames/TS_01_021_33_0.mrc MotionCorr/job002/frames/TS_01_021_33_0.star     4.494458     0.000000     4.494458 CtfFind/job003/frames/TS_01_021_33_0_PS.ctf:mrc 25121.982422 24609.693359   512.289062    50.007572     0.022809    25.000000     0.000000    42.020000    85.379049    -86.71569   -128.92971 [0.0598514232617,-0.996749460697,0.0539283038872,3583.66977311] [0.740496357479,0.0805633589625,0.667214084766,-819.444049662] [-0.66938996315,0,0.742911219597,224.413096905]  [0,0,0,1] 
frames/TS_01_022_-33.0.mrc            8           23    -32.99900    85.000000     -4.00000    66.000000 MotionCorr/job002/frames/TS_01_022_-33_0_PS.mrc MotionCorr/job002/frames/TS_01_022_-33_0.mrc MotionCorr/job002/frames/TS_01_022_-33_0.star     5.505794     0.000000     5.505794 CtfFind/job003/frames/TS_01_022_-33_0_PS.ctf:mrc 39763.414062 39611.640625   151.773438    18.874296     0.020717     8.532114     0.000000    -23.98000    85.176744    -47.78284   130.863991 [0.0768249845508,-0.996458828449,-0.0341725576622,3710.13182873] [0.910451884115,0.0840823501348,-0.404978532576,634.335619994] [0.40641772747,0,0.91368740797,-2183.3665669]  [0,0,0,1] 
frames/TS_01_023_-36.0.mrc            8           24    -35.99860    85.000000     -4.00000    69.000000 MotionCorr/job002/frames/TS_01_023_-36_0_PS.mrc MotionCorr/job002/frames/TS_01_023_-36_0.mrc MotionCorr/job002/frames/TS_01_023_-36_0.star     6.246146     0.000000     6.246146 CtfFind/job003/frames/TS_01_023_-36_0_PS.ctf:mrc 40509.957031 40135.609375   374.347656    80.393616     0.012936     9.430231     0.000000    -26.98000    85.167079    -53.83883   109.684510 [0.0750810356162,-0.996444582939,-0.038222690479,3715.18051703] [0.88799649538,0.0842504352331,-0.452066422776,733.853558124] [0.453679442406,0,0.891164958477,-2244.10632253]  [0,0,0,1] 
frames/TS_01_024_36.0.mrc            8           25    36.000600    85.000000     -4.00000    72.000000 MotionCorr/job002/frames/TS_01_024_36_0_PS.mrc MotionCorr/job002/frames/TS_01_024_36_0.mrc MotionCorr/job002/frames/TS_01_024_36_0.star     4.495101     0.000000     4.495101 CtfFind/job003/frames/TS_01_024_36_0_PS.ctf:mrc 39652.679688 38745.902344   906.777344    -11.49877     0.017633    11.026116     0.000000    45.020000    85.394029    -89.54715   -151.21903 [0.0567628156341,-0.996770501137,0.0568024615411,3583.48045573] [0.704577083446,0.0803027823567,0.705069194298,-820.377622311] [-0.707353591919,0,0.706859886646,354.417353868]  [0,0,0,1] 
frames/TS_01_025_39.0.mrc            8           26    39.000700    85.000000     -4.00000    75.000000 MotionCorr/job002/frames/TS_01_025_39_0_PS.mrc MotionCorr/job002/frames/TS_01_025_39_0.mrc MotionCorr/job002/frames/TS_01_025_39_0.star     5.029182     0.000000     5.029182 CtfFind/job003/frames/TS_01_025_39_0_PS.ctf:mrc 38325.628906 38124.542969   201.085938    -47.74515     0.016999    11.376152     0.000000    48.020000    85.410670    -76.57838   -139.24429 [0.0535186024093,-0.996793806553,0.0594801689838,3595.6054274] [0.666726633978,0.08001331985,0.740994926432,-789.116212859] [-0.743378341198,0,0.668871164322,483.449935913]  [0,0,0,1] 
frames/TS_01_026_-39.0.mrc            8           27    -38.99870    85.000000     -4.00000    78.000000 MotionCorr/job002/frames/TS_01_026_-39_0_PS.mrc MotionCorr/job002/frames/TS_01_026_-39_0.mrc MotionCorr/job002/frames/TS_01_026_-39_0.star     6.887165     0.000000     6.887165 CtfFind/job003/frames/TS_01_026_-39_0_PS.ctf:mrc 40894.464844 39581.285156  1313.179688    -82.13371     0.011720     9.685102     0.000000    -29.98000    85.156878    -44.54196   135.798818 [0.073131439966,-0.996429562569,-0.0421884239897,3731.88483304] [0.863107198057,0.0844279006124,-0.497913516226,871.391794038] [0.499697655439,0,0.866199910641,-2298.69517684]  [0,0,0,1] 
frames/TS_01_027_-42.0.mrc            8           28    -41.99890    85.000000     -4.00000    81.000000 MotionCorr/job002/frames/TS_01_027_-42_0_PS.mrc MotionCorr/job002/frames/TS_01_027_-42_0.mrc MotionCorr/job002/frames/TS_01_027_-42_0.star     7.623203     0.000000     7.623203 CtfFind/job003/frames/TS_01_027_-42_0_PS.ctf:mrc 41716.566406 40656.109375  1060.457031    80.986839     0.017743    11.944960     0.000000    -32.98000    85.146051    -48.65642   116.346724 [0.0709811731989,-0.996413648129,-0.0460604913641,3738.91389357] [0.835852181595,0.0846161693335,-0.54239399628,977.837051081] [0.544346213341,0,0.838860630989,-2346.98337317]  [0,0,0,1] 
frames/TS_01_028_42.0.mrc            8           29    42.000900    85.000000     -4.00000    84.000000 MotionCorr/job002/frames/TS_01_028_42_0_PS.mrc MotionCorr/job002/frames/TS_01_028_42_0.mrc MotionCorr/job002/frames/TS_01_028_42_0.star     4.205736     0.000000     4.205736 CtfFind/job003/frames/TS_01_028_42_0_PS.ctf:mrc 39098.769531 38320.699219   778.070312    84.089439     0.018256     9.817775     0.000000    51.020000    85.429368    -94.40679   -165.47365 [0.050127641516,-0.996819853783,0.0619466822114,3585.53344566] [0.627048594732,0.0796879678965,0.774893429138,-779.386344519] [-0.7773655653,0,0.629049062729,611.157536507]  [0,0,0,1] 
frames/TS_01_029_45.0.mrc            8           30    45.001000    85.000000     -4.00000    87.000000 MotionCorr/job002/frames/TS_01_029_45_0_PS.mrc MotionCorr/job002/frames/TS_01_029_45_0.mrc MotionCorr/job002/frames/TS_01_029_45_0.star     5.820755     0.000000     5.820755 CtfFind/job003/frames/TS_01_029_45_0_PS.ctf:mrc 23574.839844 22827.371094   747.468750    -29.53163     0.022454    25.000000     0.000000    54.020000    85.450652    -79.28403   -147.68239 [0.046599367292,-0.996849417686,0.0641856269845,3600.4927492] [0.585651861133,0.079317688942,0.806672581322,-730.342332875] [-0.809222102165,0,0.587502837181,737.189948559]  [0,0,0,1] 
frames/TS_01_030_-45.0.mrc            8           31    -44.99900    85.000000     -4.00000    90.000000 MotionCorr/job002/frames/TS_01_030_-45_0_PS.mrc MotionCorr/job002/frames/TS_01_030_-45_0.mrc MotionCorr/job002/frames/TS_01_030_-45_0.star     7.697095     0.000000     7.697095 CtfFind/job003/frames/TS_01_030_-45_0_PS.ctf:mrc 28178.750000 27765.376953   413.373047    -75.48843     0.019643     4.977066     0.000000    -35.98000    85.134470    -37.56326   138.977006 [0.0686361998339,-0.996396481991,-0.049830516204,3757.44170306] [0.806306115136,0.0848174989223,-0.585385700737,1117.77725336] [0.587502777576,0,0.80922216177,-2388.83879781]  [0,0,0,1] 
frames/TS_01_031_-48.0.mrc            8           32    -47.99860    85.000000     -4.00000    93.000000 MotionCorr/job002/frames/TS_01_031_-48_0_PS.mrc MotionCorr/job002/frames/TS_01_031_-48_0.mrc MotionCorr/job002/frames/TS_01_031_-48_0.star     8.083231     0.000000     8.083231 CtfFind/job003/frames/TS_01_031_-48_0_PS.ctf:mrc 21051.015625 20676.820312   374.195312    -35.16772     0.017612     5.231369     0.000000    -38.98000    85.121962    -48.78815   121.346971 [0.0661032714314,-0.996377944946,-0.0534911753299,3759.64673817] [0.774549963814,0.08503498137,-0.626770612392,1229.8726734] [0.629049062729,0,0.777365624905,-2424.14656281]  [0,0,0,1] 
frames/TS_01_032_48.0.mrc            8           33    48.000600    85.000000     -4.00000    96.000000 MotionCorr/job002/frames/TS_01_032_48_0_PS.mrc MotionCorr/job002/frames/TS_01_032_48_0.mrc MotionCorr/job002/frames/TS_01_032_48_0.star     5.182082     0.000000     5.182082 CtfFind/job003/frames/TS_01_032_48_0_PS.ctf:mrc 18778.925781 18667.095703   111.830078    86.593636     0.017194     6.636089     0.000000    57.020000    85.475246    -95.90030   -174.54528 [0.0429434103026,-0.996883332729,0.0661776116667,3592.57617106] [0.542649726733,0.0788898766041,0.836246181516,-707.741278947] [-0.838860630989,0,0.544346272945,861.20185256]  [0,0,0,1] 
frames/TS_01_033_51.0.mrc            8           34    51.000800    85.000000     -4.00000    99.000000 MotionCorr/job002/frames/TS_01_033_51_0_PS.mrc MotionCorr/job002/frames/TS_01_033_51_0.mrc MotionCorr/job002/frames/TS_01_033_51_0.star     6.903970     0.000000     6.903970 CtfFind/job003/frames/TS_01_033_51_0_PS.ctf:mrc 17047.605469 16366.598633   681.006836    25.677214     0.015051    25.000000     0.000000    60.020000    85.504172    -78.38531   -148.29421 [0.0391695356147,-0.996923029423,0.0678983538945,3610.59626492] [0.498160100456,0.0783864706755,0.863534639002,-639.24266521] [-0.866199910641,0,0.499697655439,982.853338122]  [0,0,0,1] 
frames/TS_01_034_-51.0.mrc            8           35    -50.99880    85.000000     -4.00000   102.000000 MotionCorr/job002/frames/TS_01_034_-51_0_PS.mrc MotionCorr/job002/frames/TS_01_034_-51_0.mrc MotionCorr/job002/frames/TS_01_034_-51_0.star     9.390338     0.000000     9.390338 CtfFind/job003/frames/TS_01_034_-51_0_PS.ctf:mrc 20659.109375 20003.937500   655.171875     1.294010     0.018699    25.000000     0.000000    -41.98000    85.108351    -38.51735   139.026999 [0.0633891413402,-0.996357738972,-0.05703578706,3777.95950252] [0.740670763237,0.0852717086673,-0.666434960947,1369.75045984] [0.668871164322,0,0.743378341198,-2452.80984044]  [0,0,0,1] 
frames/TS_01_035_-54.0.mrc            8           36    -53.99890    85.000000     -4.00000   105.000000 MotionCorr/job002/frames/TS_01_035_-54_0_PS.mrc MotionCorr/job002/frames/TS_01_035_-54_0.mrc MotionCorr/job002/frames/TS_01_035_-54_0.star     8.740121     0.000000     8.740121 CtfFind/job003/frames/TS_01_035_-54_0_PS.ctf:mrc 40846.722656 40734.113281   112.609375    -85.58551     0.014278     7.026447     0.000000    -44.98000    85.093394    -47.83900   114.739673 [0.0605012424609,-0.996335446835,-0.0604590149487,3781.92063784] [0.704761457075,0.0855318233371,-0.704269561011,1479.81013106] [0.706859886646,0,0.707353591919,-2474.75016117]  [0,0,0,1] 
frames/TS_01_036_54.0.mrc            8           37    54.000900    85.000000     -4.00000   108.000000 MotionCorr/job002/frames/TS_01_036_54_0_PS.mrc MotionCorr/job002/frames/TS_01_036_54_0.mrc MotionCorr/job002/frames/TS_01_036_54_0.star     4.857953     0.000000     4.857953 CtfFind/job003/frames/TS_01_036_54_0_PS.ctf:mrc  9667.516602  9597.457031    70.059570    -81.36260     0.016479     4.623855     0.000000    63.020000    85.538879    -99.64274   -167.88276 [0.0352883785007,-0.996970355511,0.0693171371388,3600.57881424] [0.452305014407,0.0777826160192,0.888464986047,-598.230342146] [-0.891164898872,0,0.45367950201,1101.81054473]  [0,0,0,1] 
frames/TS_01_037_57.0.mrc            8           38    57.000000    85.000000     -4.00000   111.000000 MotionCorr/job002/frames/TS_01_037_57_0_PS.mrc MotionCorr/job002/frames/TS_01_037_57_0.mrc MotionCorr/job002/frames/TS_01_037_57_0.star     5.841899     0.000000     5.841899 CtfFind/job003/frames/TS_01_037_57_0_PS.ctf:mrc 24387.000000 23744.185547   642.814453    -56.78391     0.021788    25.000000     0.000000    66.020000    85.581538    -79.81788   -143.70258 [0.031310586782,-0.997027993202,0.0703908289071,3621.72421615] [0.405209940363,0.0770403891802,0.910971863355,-518.404811897] [-0.913687348366,0,0.406417816877,1217.74797142]  [0,0,0,1] 
frames/TS_01_038_-57.0.mrc            8           39    -56.99850    85.000000     -4.00000   114.000000 MotionCorr/job002/frames/TS_01_038_-57_0_PS.mrc MotionCorr/job002/frames/TS_01_038_-57_0.mrc MotionCorr/job002/frames/TS_01_038_-57_0.star     6.877093     0.000000     6.877093 CtfFind/job003/frames/TS_01_038_-57_0_PS.ctf:mrc 28467.513672 26972.707031  1494.806641    -77.18115     0.013935    11.026116     0.000000    -47.98000    85.076774    -32.36016   130.498759 [0.0574475732165,-0.996310591698,-0.0637572252806,3804.39138451] [0.666920310262,0.0858207866549,-0.740170316775,1620.43902874] [0.742911219597,0,0.66938996315,-2489.90738392]  [0,0,0,1] 
frames/TS_01_039_-60.0.mrc            8           40    -59.99860    85.000000     -4.00000   117.000000 MotionCorr/job002/frames/TS_01_039_-60_0_PS.mrc MotionCorr/job002/frames/TS_01_039_-60_0.mrc MotionCorr/job002/frames/TS_01_039_-60_0.star  2948.247982     0.000000  2948.247982 CtfFind/job003/frames/TS_01_039_-60_0_PS.ctf:mrc  6200.371582  5408.531250   791.840332     -0.04692     0.083052    25.000000     0.000000    -50.98000    85.076774  2658.894358   -692.79909 [0.0540320501432,-0.996310591698,-0.0666764193272,5809.1230884] [0.627268823173,0.0858207866549,-0.774059821419,1140.72600284] [0.776926219463,0,0.62959164381,-2498.23990464]  [0,0,0,1] 
frames/TS_01_040_60.0.mrc            8           41    60.000600    85.000000     -4.00000   120.000000 MotionCorr/job002/frames/TS_01_040_60_0_PS.mrc MotionCorr/job002/frames/TS_01_040_60_0.mrc MotionCorr/job002/frames/TS_01_040_60_0.star     6.049509     0.000000     6.049509 CtfFind/job003/frames/TS_01_040_60_0_PS.ctf:mrc 13222.279297 12879.913086   342.366211    -44.62485     0.022652     4.875494     0.000000    69.020000    85.635595    -99.24797   -165.70610 [0.0272468668175,-0.997100234032,0.0710546291866,3614.60777732] [0.35700385286,0.0760996192694,0.930997921819,-466.449086987] [-0.933705449104,0,0.358042091131,1330.34776151]  [0,0,0,1] 
 
